2.846969985961914062e+01
2.807480049133300781e+01
2.785303688049316406e+01
2.767980003356933594e+01
2.728479957580566406e+01
2.728479957580566406e+01
2.671761703491210938e+01
2.632287979125976562e+01
2.609980010986328125e+01
2.592845153808593750e+01
2.570490074157714844e+01
2.570490074157714844e+01
2.570490074157714844e+01
2.530990028381347656e+01
2.530990028381347656e+01
2.514008712768554688e+01
2.491489982604980469e+01
2.491489982604980469e+01
2.491489982604980469e+01
2.491489982604980469e+01
2.451989936828613281e+01
2.451989936828613281e+01
2.412490081787109375e+01
2.412490081787109375e+01
2.412490081787109375e+01
2.412490081787109375e+01
2.372990036010742188e+01
2.372990036010742188e+01
2.372990036010742188e+01
2.372990036010742188e+01
2.372990036010742188e+01
2.372990036010742188e+01
2.372990036010742188e+01
2.372990036010742188e+01
2.372990036010742188e+01
2.372990036010742188e+01
2.372990036010742188e+01
2.372990036010742188e+01
2.372990036010742188e+01
2.372990036010742188e+01
2.372990036010742188e+01
2.372990036010742188e+01
2.372990036010742188e+01
2.372990036010742188e+01
2.412490081787109375e+01
2.412490081787109375e+01
2.412490081787109375e+01
2.435851478576660156e+01
2.451989936828613281e+01
2.451989936828613281e+01
2.451989936828613281e+01
2.468023109436035156e+01
2.491489982604980469e+01
2.491489982604980469e+01
2.530990028381347656e+01
2.554562187194824219e+01
2.570490074157714844e+01
2.586361122131347656e+01
2.609980010986328125e+01
2.609980010986328125e+01
2.609980010986328125e+01
2.649480056762695312e+01
2.688979911804199219e+01
2.688979911804199219e+01
2.712789344787597656e+01
2.728479957580566406e+01
2.728479957580566406e+01
2.752368354797363281e+01
2.767980003356933594e+01
2.807480049133300781e+01
2.831441307067871094e+01
2.870963668823242188e+01
2.925970077514648438e+01
2.965469932556152344e+01
3.132105445861816406e+01
3.266053009033203125e+01
3.360449981689453125e+01
3.582091522216796875e+01
3.794929885864257812e+01
4.016624450683593750e+01
4.293140792846679688e+01
4.569657135009765625e+01
4.830956649780273438e+01
5.098379898071289062e+01
5.280706024169921875e+01
5.517722320556640625e+01
5.715238571166992188e+01
5.848839950561523438e+01
5.952281570434570312e+01
6.085829925537109375e+01
6.164830017089843750e+01
6.204330062866210938e+01
6.243830108642578125e+01
6.283319854736328125e+01
6.283319854736328125e+01
6.283319854736328125e+01
6.283319854736328125e+01
6.219151687622070312e+01
6.164830017089843750e+01
6.061098861694335938e+01
5.982082366943359375e+01
5.863556289672851562e+01
5.690850067138671875e+01
5.547519683837890625e+01
5.389497375488281250e+01
5.231480789184570312e+01
5.073464584350585938e+01
4.940380096435546875e+01
4.796921920776367188e+01
4.638901901245117188e+01
4.520379257202148438e+01
4.401859283447265625e+01
4.283336639404296875e+01
4.164820098876953125e+01
4.085793685913085938e+01
3.992419815063476562e+01
3.927751159667968750e+01
3.873929977416992188e+01
3.809198379516601562e+01
3.794929885864257812e+01
3.715940093994140625e+01
3.636940002441406250e+01
3.572103118896484375e+01
3.518439865112304688e+01
3.453560256958007812e+01
3.414034271240234375e+01
3.360449981689453125e+01
3.334981536865234375e+01
3.281449890136718750e+01
3.241960144042968750e+01
3.241960144042968750e+01
3.202460098266601562e+01
3.162960052490234375e+01
3.097833442687988281e+01
3.097807121276855469e+01
3.083959960937500000e+01
3.058254432678222656e+01
3.044459915161132812e+01
3.004969978332519531e+01
3.004969978332519531e+01
2.965469932556152344e+01
2.925970077514648438e+01
2.925970077514648438e+01
2.886470031738281250e+01
2.860553741455078125e+01
2.846969985961914062e+01
2.821007537841796875e+01
2.793975257873535156e+01
2.767980003356933594e+01
2.741931915283203125e+01
2.728479957580566406e+01
2.728479957580566406e+01
2.702352905273437500e+01
2.688979911804199219e+01
2.688979911804199219e+01
2.688979911804199219e+01
2.649480056762695312e+01
2.649480056762695312e+01
2.623194885253906250e+01
2.623168563842773438e+01
2.609980010986328125e+01
2.583622550964355469e+01
2.609980010986328125e+01
2.570490074157714844e+01
2.570490074157714844e+01
2.570490074157714844e+01
2.570490074157714844e+01
2.570490074157714844e+01
2.570490074157714844e+01
2.570490074157714844e+01
2.570490074157714844e+01
2.570490074157714844e+01
2.570490074157714844e+01
2.570490074157714844e+01
2.570490074157714844e+01
2.609980010986328125e+01
2.609980010986328125e+01
2.609980010986328125e+01
2.609980010986328125e+01
2.609980010986328125e+01
2.609980010986328125e+01
2.649480056762695312e+01
2.649480056762695312e+01
2.649480056762695312e+01
2.649480056762695312e+01
2.649480056762695312e+01
2.649480056762695312e+01
2.688979911804199219e+01
2.661904907226562500e+01
2.688979911804199219e+01
2.688979911804199219e+01
2.716134262084960938e+01
2.688979911804199219e+01
2.688979911804199219e+01
2.688979911804199219e+01
2.688979911804199219e+01
2.688979911804199219e+01
2.688979911804199219e+01
2.716318511962890625e+01
2.728479957580566406e+01
2.728479957580566406e+01
2.767980003356933594e+01
2.767980003356933594e+01
2.767980003356933594e+01
2.779983329772949219e+01
2.807480049133300781e+01
2.807480049133300781e+01
2.874545669555664062e+01
2.886470031738281250e+01
2.925970077514648438e+01
2.993124580383300781e+01
3.072140884399414062e+01
3.190667343139648438e+01
3.309183502197265625e+01
3.467210006713867188e+01
3.704226303100585938e+01
3.873929977416992188e+01
4.127098083496093750e+01
4.375775146484375000e+01
4.640676116943359375e+01
4.877718734741210938e+01
5.086824417114257812e+01
5.323840713500976562e+01
5.493360137939453125e+01
5.651350021362304688e+01
5.797892761230468750e+01
5.927840042114257812e+01
5.995442199707031250e+01
6.046329879760742188e+01
6.125329971313476562e+01
6.164830017089843750e+01
6.204330062866210938e+01
6.204330062866210938e+01
6.204330062866210938e+01
6.164830017089843750e+01
6.125329971313476562e+01
6.096990585327148438e+01
6.006840133666992188e+01
5.888339996337890625e+01
5.769850158691406250e+01
5.662405395507812500e+01
5.532860183715820312e+01
5.385862731933593750e+01
5.256370162963867188e+01
5.098379898071289062e+01
4.951303482055664062e+01
4.793287277221679688e+01
4.646139144897460938e+01
4.505899810791015625e+01
4.398225402832031250e+01
4.240201950073242188e+01
4.150419998168945312e+01
4.042659378051757812e+01
3.992419815063476562e+01
3.924116516113281250e+01
3.873929977416992188e+01
3.794929885864257812e+01
3.755429840087890625e+01
3.715940093994140625e+01
3.676440048217773438e+01
3.597439956665039062e+01
3.557939910888671875e+01
3.518439865112304688e+01
3.478950119018554688e+01
3.449872970581054688e+01
3.399950027465820312e+01
3.399950027465820312e+01
3.360449981689453125e+01
3.360449981689453125e+01
3.320949935913085938e+01
3.281449890136718750e+01
3.252196121215820312e+01
3.241960144042968750e+01
3.212646102905273438e+01
3.202460098266601562e+01
3.202460098266601562e+01
3.173067092895507812e+01
3.133540725708007812e+01
3.123460006713867188e+01
3.083959960937500000e+01
3.083959960937500000e+01
3.044459915161132812e+01
3.014916610717773438e+01
3.004969978332519531e+01
2.965469932556152344e+01
2.965469932556152344e+01
2.925970077514648438e+01
2.925970077514648438e+01
2.886470031738281250e+01
2.886470031738281250e+01
2.886470031738281250e+01
2.846969985961914062e+01
2.846969985961914062e+01
2.846969985961914062e+01
2.846969985961914062e+01
2.807480049133300781e+01
2.807480049133300781e+01
2.807480049133300781e+01
2.807480049133300781e+01
2.807480049133300781e+01
2.807480049133300781e+01
2.807480049133300781e+01
2.807480049133300781e+01
2.807480049133300781e+01
2.807480049133300781e+01
2.807480049133300781e+01
2.807480049133300781e+01
2.807480049133300781e+01
2.807480049133300781e+01
2.807480049133300781e+01
2.807480049133300781e+01
2.846969985961914062e+01
2.807480049133300781e+01
2.846969985961914062e+01
2.877363777160644531e+01
2.877390098571777344e+01
2.886470031738281250e+01
2.886470031738281250e+01
2.886470031738281250e+01
2.855944633483886719e+01
2.886470031738281250e+01
2.895391845703125000e+01
2.925970077514648438e+01
2.925970077514648438e+01
2.925970077514648438e+01
2.965469932556152344e+01
3.004969978332519531e+01
3.004969978332519531e+01
3.004969978332519531e+01
3.035750961303710938e+01
3.044459915161132812e+01
3.083959960937500000e+01
3.083959960937500000e+01
3.123460006713867188e+01
3.123460006713867188e+01
3.162960052490234375e+01
3.162960052490234375e+01
3.171460533142089844e+01
3.162960052490234375e+01
3.171407890319824219e+01
3.202460098266601562e+01
3.202460098266601562e+01
3.241960144042968750e+01
3.210802459716796875e+01
3.241960144042968750e+01
3.281449890136718750e+01
3.320949935913085938e+01
3.360449981689453125e+01
3.431239318847656250e+01
3.439450073242187500e+01
3.549781799316406250e+01
3.668308258056640625e+01
3.786824417114257812e+01
3.873929977416992188e+01
4.134314346313476562e+01
4.371357345581054688e+01
4.584899902343750000e+01
4.845442581176757812e+01
5.090432739257812500e+01
5.319527816772460938e+01
5.524965286254882812e+01
5.690850067138671875e+01
5.919997787475585938e+01
6.078014373779296875e+01
6.204330062866210938e+01
6.283319854736328125e+01
6.401820373535156250e+01
6.480819702148437500e+01
6.520310211181640625e+01
6.591652679443359375e+01
6.599310302734375000e+01
6.599310302734375000e+01
6.567388916015625000e+01
6.559809875488281250e+01
6.480819702148437500e+01
6.441320037841796875e+01
6.362319946289062500e+01
6.251275253295898438e+01
6.132750701904296875e+01
6.006840133666992188e+01
5.856208038330078125e+01
5.698191452026367188e+01
5.540173339843750000e+01
5.382149124145507812e+01
5.224132537841796875e+01
5.066116333007812500e+01
4.908089828491210938e+01
4.789573669433593750e+01
4.671047210693359375e+01
4.552531051635742188e+01
4.466400146484375000e+01
4.347909927368164062e+01
4.236462020874023438e+01
4.189920043945312500e+01
4.117919158935546875e+01
4.071419906616210938e+01
3.992419815063476562e+01
3.952930068969726562e+01
3.873929977416992188e+01
3.834429931640625000e+01
3.762271118164062500e+01
3.715940093994140625e+01
3.676440048217773438e+01
3.636940002441406250e+01
3.557939910888671875e+01
3.525149536132812500e+01
3.518439865112304688e+01
3.439450073242187500e+01
3.399950027465820312e+01
3.360449981689453125e+01
3.320949935913085938e+01
3.320949935913085938e+01
3.281449890136718750e+01
3.281449890136718750e+01
3.241960144042968750e+01
3.202460098266601562e+01
3.162960052490234375e+01
3.123460006713867188e+01
3.083959960937500000e+01
3.044459915161132812e+01
3.011282920837402344e+01
2.971758079528808594e+01
2.965469932556152344e+01
2.932205390930175781e+01
2.925970077514648438e+01
2.892652702331542969e+01
2.886470031738281250e+01
2.853100013732910156e+01
2.880366325378417969e+01
2.846969985961914062e+01
2.846969985961914062e+01
2.807480049133300781e+01
2.785303688049316406e+01
2.767980003356933594e+01
2.728479957580566406e+01
2.728479957580566406e+01
2.671761703491210938e+01
2.632287979125976562e+01
2.609980010986328125e+01
2.592845153808593750e+01
2.570490074157714844e+01
2.570490074157714844e+01
2.570490074157714844e+01
2.530990028381347656e+01
2.530990028381347656e+01
2.514008712768554688e+01
2.491489982604980469e+01
2.491489982604980469e+01
2.491489982604980469e+01
2.491489982604980469e+01
2.451989936828613281e+01
2.451989936828613281e+01
2.412490081787109375e+01
2.412490081787109375e+01
2.412490081787109375e+01
2.412490081787109375e+01
2.372990036010742188e+01
2.372990036010742188e+01
2.372990036010742188e+01
2.372990036010742188e+01
2.372990036010742188e+01
2.372990036010742188e+01
2.372990036010742188e+01
2.372990036010742188e+01
2.372990036010742188e+01
2.372990036010742188e+01
2.372990036010742188e+01
2.372990036010742188e+01
2.372990036010742188e+01
2.372990036010742188e+01
2.372990036010742188e+01
2.372990036010742188e+01
2.372990036010742188e+01
2.372990036010742188e+01
2.412490081787109375e+01
2.412490081787109375e+01
2.412490081787109375e+01
2.435851478576660156e+01
2.451989936828613281e+01
2.451989936828613281e+01
2.451989936828613281e+01
2.468023109436035156e+01
2.491489982604980469e+01
2.491489982604980469e+01
2.530990028381347656e+01
2.554562187194824219e+01
2.570490074157714844e+01
2.586361122131347656e+01
2.609980010986328125e+01
2.609980010986328125e+01
2.609980010986328125e+01
2.649480056762695312e+01
2.688979911804199219e+01
2.688979911804199219e+01
2.712789344787597656e+01
2.728479957580566406e+01
2.728479957580566406e+01
2.752368354797363281e+01
2.767980003356933594e+01
2.807480049133300781e+01
2.831441307067871094e+01
2.870963668823242188e+01
2.925970077514648438e+01
2.965469932556152344e+01
3.132105445861816406e+01
3.266053009033203125e+01
3.360449981689453125e+01
3.582091522216796875e+01
3.794929885864257812e+01
4.016624450683593750e+01
4.293140792846679688e+01
4.569657135009765625e+01
4.830956649780273438e+01
5.098379898071289062e+01
5.280706024169921875e+01
5.517722320556640625e+01
5.715238571166992188e+01
5.848839950561523438e+01
5.952281570434570312e+01
6.085829925537109375e+01
6.164830017089843750e+01
6.204330062866210938e+01
6.243830108642578125e+01
6.283319854736328125e+01
6.283319854736328125e+01
6.283319854736328125e+01
6.283319854736328125e+01
6.219151687622070312e+01
6.164830017089843750e+01
6.061098861694335938e+01
5.982082366943359375e+01
5.863556289672851562e+01
5.690850067138671875e+01
5.547519683837890625e+01
5.389497375488281250e+01
5.231480789184570312e+01
5.073464584350585938e+01
4.940380096435546875e+01
4.796921920776367188e+01
4.638901901245117188e+01
4.520379257202148438e+01
4.401859283447265625e+01
4.283336639404296875e+01
4.164820098876953125e+01
4.085793685913085938e+01
3.992419815063476562e+01
3.927751159667968750e+01
3.873929977416992188e+01
3.809198379516601562e+01
3.794929885864257812e+01
3.715940093994140625e+01
3.636940002441406250e+01
3.572103118896484375e+01
3.518439865112304688e+01
3.453560256958007812e+01
3.414034271240234375e+01
3.360449981689453125e+01
3.334981536865234375e+01
3.281449890136718750e+01
3.241960144042968750e+01
3.241960144042968750e+01
3.202460098266601562e+01
3.162960052490234375e+01
3.097833442687988281e+01
3.097807121276855469e+01
3.083959960937500000e+01
3.058254432678222656e+01
3.044459915161132812e+01
3.004969978332519531e+01
3.004969978332519531e+01
2.965469932556152344e+01
2.925970077514648438e+01
2.925970077514648438e+01
2.886470031738281250e+01
2.860553741455078125e+01
2.846969985961914062e+01
2.821007537841796875e+01
2.793975257873535156e+01
2.767980003356933594e+01
2.741931915283203125e+01
2.728479957580566406e+01
2.728479957580566406e+01
2.702352905273437500e+01
2.688979911804199219e+01
2.688979911804199219e+01
2.688979911804199219e+01
2.649480056762695312e+01
2.649480056762695312e+01
2.623194885253906250e+01
2.623168563842773438e+01
2.609980010986328125e+01
2.583622550964355469e+01
2.609980010986328125e+01
2.570490074157714844e+01
2.570490074157714844e+01
2.570490074157714844e+01
2.570490074157714844e+01
2.570490074157714844e+01
2.570490074157714844e+01
2.570490074157714844e+01
2.570490074157714844e+01
2.570490074157714844e+01
2.570490074157714844e+01
2.570490074157714844e+01
2.570490074157714844e+01
2.609980010986328125e+01
2.609980010986328125e+01
2.609980010986328125e+01
2.609980010986328125e+01
2.609980010986328125e+01
2.609980010986328125e+01
2.649480056762695312e+01
2.649480056762695312e+01
2.649480056762695312e+01
2.649480056762695312e+01
2.649480056762695312e+01
2.649480056762695312e+01
2.688979911804199219e+01
2.661904907226562500e+01
2.688979911804199219e+01
2.688979911804199219e+01
2.716134262084960938e+01
2.688979911804199219e+01
2.688979911804199219e+01
2.688979911804199219e+01
2.688979911804199219e+01
2.688979911804199219e+01
2.688979911804199219e+01
2.716318511962890625e+01
2.728479957580566406e+01
2.728479957580566406e+01
2.767980003356933594e+01
2.767980003356933594e+01
2.767980003356933594e+01
2.779983329772949219e+01
2.807480049133300781e+01
2.807480049133300781e+01
2.874545669555664062e+01
2.886470031738281250e+01
2.925970077514648438e+01
2.993124580383300781e+01
3.072140884399414062e+01
3.190667343139648438e+01
3.309183502197265625e+01
3.467210006713867188e+01
3.704226303100585938e+01
3.873929977416992188e+01
4.127098083496093750e+01
4.375775146484375000e+01
4.640676116943359375e+01
4.877718734741210938e+01
5.086824417114257812e+01
5.323840713500976562e+01
5.493360137939453125e+01
5.651350021362304688e+01
5.797892761230468750e+01
5.927840042114257812e+01
5.995442199707031250e+01
6.046329879760742188e+01
6.125329971313476562e+01
6.164830017089843750e+01
6.204330062866210938e+01
6.204330062866210938e+01
6.204330062866210938e+01
6.164830017089843750e+01
6.125329971313476562e+01
6.096990585327148438e+01
6.006840133666992188e+01
5.888339996337890625e+01
5.769850158691406250e+01
5.662405395507812500e+01
5.532860183715820312e+01
5.385862731933593750e+01
5.256370162963867188e+01
5.098379898071289062e+01
4.951303482055664062e+01
4.793287277221679688e+01
4.646139144897460938e+01
4.505899810791015625e+01
4.398225402832031250e+01
4.240201950073242188e+01
4.150419998168945312e+01
4.042659378051757812e+01
3.992419815063476562e+01
3.924116516113281250e+01
3.873929977416992188e+01
3.794929885864257812e+01
3.755429840087890625e+01
3.715940093994140625e+01
3.676440048217773438e+01
3.597439956665039062e+01
3.557939910888671875e+01
3.518439865112304688e+01
3.478950119018554688e+01
3.449872970581054688e+01
3.399950027465820312e+01
3.399950027465820312e+01
3.360449981689453125e+01
3.360449981689453125e+01
3.320949935913085938e+01
3.281449890136718750e+01
3.252196121215820312e+01
3.241960144042968750e+01
3.212646102905273438e+01
3.202460098266601562e+01
3.202460098266601562e+01
3.173067092895507812e+01
3.133540725708007812e+01
3.123460006713867188e+01
3.083959960937500000e+01
3.083959960937500000e+01
3.044459915161132812e+01
3.014916610717773438e+01
3.004969978332519531e+01
2.965469932556152344e+01
2.965469932556152344e+01
2.925970077514648438e+01
2.925970077514648438e+01
2.886470031738281250e+01
2.886470031738281250e+01
2.886470031738281250e+01
2.846969985961914062e+01
2.846969985961914062e+01
2.846969985961914062e+01
2.846969985961914062e+01
2.807480049133300781e+01
2.807480049133300781e+01
2.807480049133300781e+01
2.807480049133300781e+01
2.807480049133300781e+01
2.807480049133300781e+01
2.807480049133300781e+01
2.807480049133300781e+01
2.807480049133300781e+01
2.807480049133300781e+01
2.807480049133300781e+01
2.807480049133300781e+01
2.807480049133300781e+01
2.807480049133300781e+01
2.807480049133300781e+01
2.807480049133300781e+01
2.846969985961914062e+01
2.807480049133300781e+01
2.846969985961914062e+01
2.877363777160644531e+01
2.877390098571777344e+01
2.886470031738281250e+01
2.886470031738281250e+01
2.886470031738281250e+01
2.855944633483886719e+01
2.886470031738281250e+01
2.895391845703125000e+01
2.925970077514648438e+01
2.925970077514648438e+01
2.925970077514648438e+01
2.965469932556152344e+01
3.004969978332519531e+01
3.004969978332519531e+01
3.004969978332519531e+01
3.035750961303710938e+01
3.044459915161132812e+01
3.083959960937500000e+01
3.083959960937500000e+01
3.123460006713867188e+01
3.123460006713867188e+01
3.162960052490234375e+01
3.162960052490234375e+01
3.171460533142089844e+01
3.162960052490234375e+01
3.171407890319824219e+01
3.202460098266601562e+01
3.202460098266601562e+01
3.241960144042968750e+01
3.210802459716796875e+01
3.241960144042968750e+01
3.281449890136718750e+01
3.320949935913085938e+01
3.360449981689453125e+01
3.431239318847656250e+01
3.439450073242187500e+01
3.549781799316406250e+01
3.668308258056640625e+01
3.786824417114257812e+01
3.873929977416992188e+01
4.134314346313476562e+01
4.371357345581054688e+01
4.584899902343750000e+01
4.845442581176757812e+01
5.090432739257812500e+01
5.319527816772460938e+01
5.524965286254882812e+01
5.690850067138671875e+01
5.919997787475585938e+01
6.078014373779296875e+01
6.204330062866210938e+01
6.283319854736328125e+01
6.401820373535156250e+01
6.480819702148437500e+01
6.520310211181640625e+01
6.591652679443359375e+01
6.599310302734375000e+01
6.599310302734375000e+01
6.567388916015625000e+01
6.559809875488281250e+01
6.480819702148437500e+01
6.441320037841796875e+01
6.362319946289062500e+01
6.251275253295898438e+01
6.132750701904296875e+01
6.006840133666992188e+01
5.856208038330078125e+01
5.698191452026367188e+01
5.540173339843750000e+01
5.382149124145507812e+01
5.224132537841796875e+01
5.066116333007812500e+01
4.908089828491210938e+01
4.789573669433593750e+01
4.671047210693359375e+01
4.552531051635742188e+01
4.466400146484375000e+01
4.347909927368164062e+01
4.236462020874023438e+01
4.189920043945312500e+01
4.117919158935546875e+01
4.071419906616210938e+01
3.992419815063476562e+01
3.952930068969726562e+01
3.873929977416992188e+01
3.834429931640625000e+01
3.762271118164062500e+01
3.715940093994140625e+01
3.676440048217773438e+01
3.636940002441406250e+01
3.557939910888671875e+01
3.525149536132812500e+01
3.518439865112304688e+01
3.439450073242187500e+01
3.399950027465820312e+01
3.360449981689453125e+01
3.320949935913085938e+01
3.320949935913085938e+01
3.281449890136718750e+01
3.281449890136718750e+01
3.241960144042968750e+01
3.202460098266601562e+01
3.162960052490234375e+01
3.123460006713867188e+01
3.083959960937500000e+01
3.044459915161132812e+01
3.011282920837402344e+01
2.971758079528808594e+01
2.965469932556152344e+01
2.932205390930175781e+01
2.925970077514648438e+01
2.892652702331542969e+01
2.886470031738281250e+01
2.853100013732910156e+01
2.880366325378417969e+01
2.846969985961914062e+01
2.846969985961914062e+01
2.807480049133300781e+01
2.785303688049316406e+01
2.767980003356933594e+01
2.728479957580566406e+01
2.728479957580566406e+01
2.671761703491210938e+01
2.632287979125976562e+01
2.609980010986328125e+01
2.592845153808593750e+01
2.570490074157714844e+01
2.570490074157714844e+01
2.570490074157714844e+01
2.530990028381347656e+01
2.530990028381347656e+01
2.514008712768554688e+01
2.491489982604980469e+01
2.491489982604980469e+01
2.491489982604980469e+01
2.491489982604980469e+01
2.451989936828613281e+01
2.451989936828613281e+01
2.412490081787109375e+01
2.412490081787109375e+01
2.412490081787109375e+01
2.412490081787109375e+01
2.372990036010742188e+01
2.372990036010742188e+01
2.372990036010742188e+01
2.372990036010742188e+01
2.372990036010742188e+01
2.372990036010742188e+01
2.372990036010742188e+01
2.372990036010742188e+01
2.372990036010742188e+01
2.372990036010742188e+01
2.372990036010742188e+01
2.372990036010742188e+01
2.372990036010742188e+01
2.372990036010742188e+01
2.372990036010742188e+01
2.372990036010742188e+01
2.372990036010742188e+01
2.372990036010742188e+01
2.412490081787109375e+01
2.412490081787109375e+01
2.412490081787109375e+01
2.435851478576660156e+01
2.451989936828613281e+01
2.451989936828613281e+01
2.451989936828613281e+01
2.468023109436035156e+01
2.491489982604980469e+01
2.491489982604980469e+01
2.530990028381347656e+01
2.554562187194824219e+01
2.570490074157714844e+01
2.586361122131347656e+01
2.609980010986328125e+01
2.609980010986328125e+01
2.609980010986328125e+01
2.649480056762695312e+01
2.688979911804199219e+01
2.688979911804199219e+01
2.712789344787597656e+01
2.728479957580566406e+01
2.728479957580566406e+01
2.752368354797363281e+01
2.767980003356933594e+01
2.807480049133300781e+01
2.831441307067871094e+01
2.870963668823242188e+01
2.925970077514648438e+01
2.965469932556152344e+01
3.132105445861816406e+01
3.266053009033203125e+01
3.360449981689453125e+01
3.582091522216796875e+01
3.794929885864257812e+01
4.016624450683593750e+01
4.293140792846679688e+01
4.569657135009765625e+01
4.830956649780273438e+01
5.098379898071289062e+01
5.280706024169921875e+01
5.517722320556640625e+01
5.715238571166992188e+01
5.848839950561523438e+01
5.952281570434570312e+01
6.085829925537109375e+01
6.164830017089843750e+01
6.204330062866210938e+01
6.243830108642578125e+01
6.283319854736328125e+01
6.283319854736328125e+01
6.283319854736328125e+01
6.283319854736328125e+01
6.219151687622070312e+01
6.164830017089843750e+01
6.061098861694335938e+01
5.982082366943359375e+01
5.863556289672851562e+01
5.690850067138671875e+01
5.547519683837890625e+01
5.389497375488281250e+01
5.231480789184570312e+01
5.073464584350585938e+01
4.940380096435546875e+01
4.796921920776367188e+01
4.638901901245117188e+01
4.520379257202148438e+01
4.401859283447265625e+01
4.283336639404296875e+01
4.164820098876953125e+01
4.085793685913085938e+01
3.992419815063476562e+01
3.927751159667968750e+01
3.873929977416992188e+01
3.809198379516601562e+01
3.794929885864257812e+01
3.715940093994140625e+01
3.636940002441406250e+01
3.572103118896484375e+01
3.518439865112304688e+01
3.453560256958007812e+01
3.414034271240234375e+01
3.360449981689453125e+01
3.334981536865234375e+01
3.281449890136718750e+01
3.241960144042968750e+01
3.241960144042968750e+01
3.202460098266601562e+01
3.162960052490234375e+01
3.097833442687988281e+01
3.097807121276855469e+01
3.083959960937500000e+01
3.058254432678222656e+01
3.044459915161132812e+01
3.004969978332519531e+01
3.004969978332519531e+01
2.965469932556152344e+01
2.925970077514648438e+01
2.925970077514648438e+01
2.886470031738281250e+01
2.860553741455078125e+01
2.846969985961914062e+01
2.821007537841796875e+01
2.793975257873535156e+01
2.767980003356933594e+01
2.741931915283203125e+01
2.728479957580566406e+01
2.728479957580566406e+01
2.702352905273437500e+01
2.688979911804199219e+01
2.688979911804199219e+01
2.688979911804199219e+01
2.649480056762695312e+01
2.649480056762695312e+01
2.623194885253906250e+01
2.623168563842773438e+01
2.609980010986328125e+01
2.583622550964355469e+01
2.609980010986328125e+01
2.570490074157714844e+01
2.570490074157714844e+01
2.570490074157714844e+01
2.570490074157714844e+01
2.570490074157714844e+01
2.570490074157714844e+01
2.570490074157714844e+01
2.570490074157714844e+01
2.570490074157714844e+01
2.570490074157714844e+01
2.570490074157714844e+01
2.570490074157714844e+01
2.609980010986328125e+01
2.609980010986328125e+01
2.609980010986328125e+01
2.609980010986328125e+01
2.609980010986328125e+01
2.609980010986328125e+01
2.649480056762695312e+01
2.649480056762695312e+01
2.649480056762695312e+01
2.649480056762695312e+01
2.649480056762695312e+01
2.649480056762695312e+01
2.688979911804199219e+01
2.661904907226562500e+01
2.688979911804199219e+01
2.688979911804199219e+01
2.716134262084960938e+01
2.688979911804199219e+01
2.688979911804199219e+01
2.688979911804199219e+01
2.688979911804199219e+01
2.688979911804199219e+01
2.688979911804199219e+01
2.716318511962890625e+01
2.728479957580566406e+01
2.728479957580566406e+01
2.767980003356933594e+01
2.767980003356933594e+01
2.767980003356933594e+01
2.779983329772949219e+01
2.807480049133300781e+01
2.807480049133300781e+01
2.874545669555664062e+01
2.886470031738281250e+01
2.925970077514648438e+01
2.993124580383300781e+01
3.072140884399414062e+01
3.190667343139648438e+01
3.309183502197265625e+01
3.467210006713867188e+01
3.704226303100585938e+01
3.873929977416992188e+01
4.127098083496093750e+01
4.375775146484375000e+01
4.640676116943359375e+01
4.877718734741210938e+01
5.086824417114257812e+01
5.323840713500976562e+01
5.493360137939453125e+01
5.651350021362304688e+01
5.797892761230468750e+01
5.927840042114257812e+01
5.995442199707031250e+01
6.046329879760742188e+01
6.125329971313476562e+01
6.164830017089843750e+01
6.204330062866210938e+01
6.204330062866210938e+01
6.204330062866210938e+01
6.164830017089843750e+01
6.125329971313476562e+01
6.096990585327148438e+01
6.006840133666992188e+01
5.888339996337890625e+01
5.769850158691406250e+01
5.662405395507812500e+01
5.532860183715820312e+01
5.385862731933593750e+01
5.256370162963867188e+01
5.098379898071289062e+01
4.951303482055664062e+01
4.793287277221679688e+01
4.646139144897460938e+01
4.505899810791015625e+01
4.398225402832031250e+01
4.240201950073242188e+01
4.150419998168945312e+01
4.042659378051757812e+01
3.992419815063476562e+01
3.924116516113281250e+01
3.873929977416992188e+01
3.794929885864257812e+01
3.755429840087890625e+01
3.715940093994140625e+01
3.676440048217773438e+01
3.597439956665039062e+01
3.557939910888671875e+01
3.518439865112304688e+01
3.478950119018554688e+01
3.449872970581054688e+01
3.399950027465820312e+01
3.399950027465820312e+01
3.360449981689453125e+01
3.360449981689453125e+01
3.320949935913085938e+01
3.281449890136718750e+01
3.252196121215820312e+01
3.241960144042968750e+01
3.212646102905273438e+01
3.202460098266601562e+01
3.202460098266601562e+01
3.173067092895507812e+01
3.133540725708007812e+01
3.123460006713867188e+01
3.083959960937500000e+01
3.083959960937500000e+01
3.044459915161132812e+01
3.014916610717773438e+01
3.004969978332519531e+01
2.965469932556152344e+01
2.965469932556152344e+01
2.925970077514648438e+01
2.925970077514648438e+01
2.886470031738281250e+01
2.886470031738281250e+01
2.886470031738281250e+01
2.846969985961914062e+01
2.846969985961914062e+01
2.846969985961914062e+01
2.846969985961914062e+01
2.807480049133300781e+01
2.807480049133300781e+01
2.807480049133300781e+01
2.807480049133300781e+01
2.807480049133300781e+01
2.807480049133300781e+01
2.807480049133300781e+01
2.807480049133300781e+01
2.807480049133300781e+01
2.807480049133300781e+01
2.807480049133300781e+01
2.807480049133300781e+01
2.807480049133300781e+01
2.807480049133300781e+01
2.807480049133300781e+01
2.807480049133300781e+01
2.846969985961914062e+01
2.807480049133300781e+01
2.846969985961914062e+01
2.877363777160644531e+01
2.877390098571777344e+01
2.886470031738281250e+01
2.886470031738281250e+01
2.886470031738281250e+01
2.855944633483886719e+01
2.886470031738281250e+01
2.895391845703125000e+01
2.925970077514648438e+01
2.925970077514648438e+01
2.925970077514648438e+01
2.965469932556152344e+01
3.004969978332519531e+01
3.004969978332519531e+01
3.004969978332519531e+01
3.035750961303710938e+01
3.044459915161132812e+01
3.083959960937500000e+01
3.083959960937500000e+01
3.123460006713867188e+01
3.123460006713867188e+01
3.162960052490234375e+01
3.162960052490234375e+01
3.171460533142089844e+01
3.162960052490234375e+01
3.171407890319824219e+01
3.202460098266601562e+01
3.202460098266601562e+01
3.241960144042968750e+01
3.210802459716796875e+01
3.241960144042968750e+01
3.281449890136718750e+01
3.320949935913085938e+01
3.360449981689453125e+01
3.431239318847656250e+01
3.439450073242187500e+01
3.549781799316406250e+01
3.668308258056640625e+01
3.786824417114257812e+01
3.873929977416992188e+01
4.134314346313476562e+01
4.371357345581054688e+01
4.584899902343750000e+01
4.845442581176757812e+01
5.090432739257812500e+01
5.319527816772460938e+01
5.524965286254882812e+01
5.690850067138671875e+01
5.919997787475585938e+01
6.078014373779296875e+01
6.204330062866210938e+01
6.283319854736328125e+01
6.401820373535156250e+01
6.480819702148437500e+01
6.520310211181640625e+01
6.591652679443359375e+01
6.599310302734375000e+01
6.599310302734375000e+01
6.567388916015625000e+01
6.559809875488281250e+01
6.480819702148437500e+01
6.441320037841796875e+01
6.362319946289062500e+01
6.251275253295898438e+01
6.132750701904296875e+01
6.006840133666992188e+01
5.856208038330078125e+01
5.698191452026367188e+01
5.540173339843750000e+01
5.382149124145507812e+01
5.224132537841796875e+01
5.066116333007812500e+01
4.908089828491210938e+01
4.789573669433593750e+01
4.671047210693359375e+01
4.552531051635742188e+01
4.466400146484375000e+01
4.347909927368164062e+01
4.236462020874023438e+01
4.189920043945312500e+01
4.117919158935546875e+01
4.071419906616210938e+01
3.992419815063476562e+01
3.952930068969726562e+01
3.873929977416992188e+01
3.834429931640625000e+01
3.762271118164062500e+01
3.715940093994140625e+01
3.676440048217773438e+01
3.636940002441406250e+01
3.557939910888671875e+01
3.525149536132812500e+01
3.518439865112304688e+01
3.439450073242187500e+01
3.399950027465820312e+01
3.360449981689453125e+01
3.320949935913085938e+01
3.320949935913085938e+01
3.281449890136718750e+01
3.281449890136718750e+01
3.241960144042968750e+01
3.202460098266601562e+01
3.162960052490234375e+01
3.123460006713867188e+01
3.083959960937500000e+01
3.044459915161132812e+01
3.011282920837402344e+01
2.971758079528808594e+01
2.965469932556152344e+01
2.932205390930175781e+01
2.925970077514648438e+01
2.892652702331542969e+01
2.886470031738281250e+01
2.853100013732910156e+01
2.880366325378417969e+01
2.846969985961914062e+01
2.846969985961914062e+01
2.807480049133300781e+01
2.785303688049316406e+01
2.767980003356933594e+01
2.728479957580566406e+01
2.728479957580566406e+01
2.671761703491210938e+01
2.632287979125976562e+01
2.609980010986328125e+01
2.592845153808593750e+01
2.570490074157714844e+01
2.570490074157714844e+01
2.570490074157714844e+01
2.530990028381347656e+01
2.530990028381347656e+01
2.514008712768554688e+01
2.491489982604980469e+01
2.491489982604980469e+01
2.491489982604980469e+01
2.491489982604980469e+01
2.451989936828613281e+01
2.451989936828613281e+01
2.412490081787109375e+01
2.412490081787109375e+01
2.412490081787109375e+01
2.412490081787109375e+01
2.372990036010742188e+01
2.372990036010742188e+01
2.372990036010742188e+01
2.372990036010742188e+01
2.372990036010742188e+01
2.372990036010742188e+01
2.372990036010742188e+01
2.372990036010742188e+01
2.372990036010742188e+01
2.372990036010742188e+01
2.372990036010742188e+01
2.372990036010742188e+01
2.372990036010742188e+01
2.372990036010742188e+01
2.372990036010742188e+01
2.372990036010742188e+01
2.372990036010742188e+01
2.372990036010742188e+01
2.412490081787109375e+01
2.412490081787109375e+01
2.412490081787109375e+01
2.435851478576660156e+01
2.451989936828613281e+01
2.451989936828613281e+01
2.451989936828613281e+01
2.468023109436035156e+01
2.491489982604980469e+01
2.491489982604980469e+01
2.530990028381347656e+01
2.554562187194824219e+01
2.570490074157714844e+01
2.586361122131347656e+01
2.609980010986328125e+01
2.609980010986328125e+01
2.609980010986328125e+01
2.649480056762695312e+01
2.688979911804199219e+01
2.688979911804199219e+01
2.712789344787597656e+01
2.728479957580566406e+01
2.728479957580566406e+01
2.752368354797363281e+01
2.767980003356933594e+01
2.807480049133300781e+01
2.831441307067871094e+01
2.870963668823242188e+01
2.925970077514648438e+01
2.965469932556152344e+01
3.132105445861816406e+01
3.266053009033203125e+01
3.360449981689453125e+01
3.582091522216796875e+01
3.794929885864257812e+01
4.016624450683593750e+01
4.293140792846679688e+01
4.569657135009765625e+01
4.830956649780273438e+01
5.098379898071289062e+01
5.280706024169921875e+01
5.517722320556640625e+01
5.715238571166992188e+01
5.848839950561523438e+01
5.952281570434570312e+01
6.085829925537109375e+01
6.164830017089843750e+01
6.204330062866210938e+01
6.243830108642578125e+01
6.283319854736328125e+01
6.283319854736328125e+01
6.283319854736328125e+01
6.283319854736328125e+01
6.219151687622070312e+01
6.164830017089843750e+01
6.061098861694335938e+01
5.982082366943359375e+01
5.863556289672851562e+01
5.690850067138671875e+01
5.547519683837890625e+01
5.389497375488281250e+01
5.231480789184570312e+01
5.073464584350585938e+01
4.940380096435546875e+01
4.796921920776367188e+01
4.638901901245117188e+01
4.520379257202148438e+01
4.401859283447265625e+01
4.283336639404296875e+01
4.164820098876953125e+01
4.085793685913085938e+01
3.992419815063476562e+01
3.927751159667968750e+01
3.873929977416992188e+01
3.809198379516601562e+01
3.794929885864257812e+01
3.715940093994140625e+01
3.636940002441406250e+01
3.572103118896484375e+01
3.518439865112304688e+01
3.453560256958007812e+01
3.414034271240234375e+01
3.360449981689453125e+01
3.334981536865234375e+01
3.281449890136718750e+01
3.241960144042968750e+01
3.241960144042968750e+01
3.202460098266601562e+01
3.162960052490234375e+01
3.097833442687988281e+01
3.097807121276855469e+01
3.083959960937500000e+01
3.058254432678222656e+01
3.044459915161132812e+01
3.004969978332519531e+01
3.004969978332519531e+01
2.965469932556152344e+01
2.925970077514648438e+01
2.925970077514648438e+01
2.886470031738281250e+01
2.860553741455078125e+01
2.846969985961914062e+01
2.821007537841796875e+01
2.793975257873535156e+01
2.767980003356933594e+01
2.741931915283203125e+01
2.728479957580566406e+01
2.728479957580566406e+01
2.702352905273437500e+01
2.688979911804199219e+01
2.688979911804199219e+01
2.688979911804199219e+01
2.649480056762695312e+01
2.649480056762695312e+01
2.623194885253906250e+01
2.623168563842773438e+01
2.609980010986328125e+01
2.583622550964355469e+01
2.609980010986328125e+01
2.570490074157714844e+01
2.570490074157714844e+01
2.570490074157714844e+01
2.570490074157714844e+01
2.570490074157714844e+01
2.570490074157714844e+01
2.570490074157714844e+01
2.570490074157714844e+01
2.570490074157714844e+01
2.570490074157714844e+01
2.570490074157714844e+01
2.570490074157714844e+01
2.609980010986328125e+01
2.609980010986328125e+01
2.609980010986328125e+01
2.609980010986328125e+01
2.609980010986328125e+01
2.609980010986328125e+01
2.649480056762695312e+01
2.649480056762695312e+01
2.649480056762695312e+01
2.649480056762695312e+01
2.649480056762695312e+01
2.649480056762695312e+01
2.688979911804199219e+01
2.661904907226562500e+01
2.688979911804199219e+01
2.688979911804199219e+01
2.716134262084960938e+01
2.688979911804199219e+01
2.688979911804199219e+01
2.688979911804199219e+01
2.688979911804199219e+01
2.688979911804199219e+01
2.688979911804199219e+01
2.716318511962890625e+01
2.728479957580566406e+01
2.728479957580566406e+01
2.767980003356933594e+01
2.767980003356933594e+01
2.767980003356933594e+01
2.779983329772949219e+01
2.807480049133300781e+01
2.807480049133300781e+01
2.874545669555664062e+01
2.886470031738281250e+01
2.925970077514648438e+01
2.993124580383300781e+01
3.072140884399414062e+01
3.190667343139648438e+01
3.309183502197265625e+01
3.467210006713867188e+01
3.704226303100585938e+01
3.873929977416992188e+01
4.127098083496093750e+01
4.375775146484375000e+01
4.640676116943359375e+01
4.877718734741210938e+01
5.086824417114257812e+01
5.323840713500976562e+01
5.493360137939453125e+01
5.651350021362304688e+01
5.797892761230468750e+01
5.927840042114257812e+01
5.995442199707031250e+01
6.046329879760742188e+01
6.125329971313476562e+01
6.164830017089843750e+01
6.204330062866210938e+01
6.204330062866210938e+01
6.204330062866210938e+01
6.164830017089843750e+01
6.125329971313476562e+01
6.096990585327148438e+01
6.006840133666992188e+01
5.888339996337890625e+01
5.769850158691406250e+01
5.662405395507812500e+01
5.532860183715820312e+01
5.385862731933593750e+01
5.256370162963867188e+01
5.098379898071289062e+01
4.951303482055664062e+01
4.793287277221679688e+01
4.646139144897460938e+01
4.505899810791015625e+01
4.398225402832031250e+01
4.240201950073242188e+01
4.150419998168945312e+01
4.042659378051757812e+01
3.992419815063476562e+01
3.924116516113281250e+01
3.873929977416992188e+01
3.794929885864257812e+01
3.755429840087890625e+01
3.715940093994140625e+01
3.676440048217773438e+01
3.597439956665039062e+01
3.557939910888671875e+01
3.518439865112304688e+01
3.478950119018554688e+01
3.449872970581054688e+01
3.399950027465820312e+01
3.399950027465820312e+01
3.360449981689453125e+01
3.360449981689453125e+01
3.320949935913085938e+01
3.281449890136718750e+01
3.252196121215820312e+01
3.241960144042968750e+01
3.212646102905273438e+01
3.202460098266601562e+01
3.202460098266601562e+01
3.173067092895507812e+01
3.133540725708007812e+01
3.123460006713867188e+01
3.083959960937500000e+01
3.083959960937500000e+01
3.044459915161132812e+01
3.014916610717773438e+01
3.004969978332519531e+01
2.965469932556152344e+01
2.965469932556152344e+01
2.925970077514648438e+01
2.925970077514648438e+01
2.886470031738281250e+01
2.886470031738281250e+01
2.886470031738281250e+01
2.846969985961914062e+01
2.846969985961914062e+01
2.846969985961914062e+01
2.846969985961914062e+01
2.807480049133300781e+01
2.807480049133300781e+01
2.807480049133300781e+01
2.807480049133300781e+01
2.807480049133300781e+01
2.807480049133300781e+01
2.807480049133300781e+01
2.807480049133300781e+01
2.807480049133300781e+01
2.807480049133300781e+01
2.807480049133300781e+01
2.807480049133300781e+01
2.807480049133300781e+01
2.807480049133300781e+01
2.807480049133300781e+01
2.807480049133300781e+01
2.846969985961914062e+01
2.807480049133300781e+01
2.846969985961914062e+01
2.877363777160644531e+01
2.877390098571777344e+01
2.886470031738281250e+01
2.886470031738281250e+01
2.886470031738281250e+01
2.855944633483886719e+01
2.886470031738281250e+01
2.895391845703125000e+01
2.925970077514648438e+01
2.925970077514648438e+01
2.925970077514648438e+01
2.965469932556152344e+01
3.004969978332519531e+01
3.004969978332519531e+01
3.004969978332519531e+01
3.035750961303710938e+01
3.044459915161132812e+01
3.083959960937500000e+01
3.083959960937500000e+01
3.123460006713867188e+01
3.123460006713867188e+01
3.162960052490234375e+01
3.162960052490234375e+01
3.171460533142089844e+01
3.162960052490234375e+01
3.171407890319824219e+01
3.202460098266601562e+01
3.202460098266601562e+01
3.241960144042968750e+01
3.210802459716796875e+01
3.241960144042968750e+01
3.281449890136718750e+01
3.320949935913085938e+01
3.360449981689453125e+01
3.431239318847656250e+01
3.439450073242187500e+01
3.549781799316406250e+01
3.668308258056640625e+01
3.786824417114257812e+01
3.873929977416992188e+01
4.134314346313476562e+01
4.371357345581054688e+01
4.584899902343750000e+01
4.845442581176757812e+01
5.090432739257812500e+01
5.319527816772460938e+01
5.524965286254882812e+01
5.690850067138671875e+01
5.919997787475585938e+01
6.078014373779296875e+01
6.204330062866210938e+01
6.283319854736328125e+01
6.401820373535156250e+01
6.480819702148437500e+01
6.520310211181640625e+01
6.591652679443359375e+01
6.599310302734375000e+01
6.599310302734375000e+01
6.567388916015625000e+01
6.559809875488281250e+01
6.480819702148437500e+01
6.441320037841796875e+01
6.362319946289062500e+01
6.251275253295898438e+01
6.132750701904296875e+01
6.006840133666992188e+01
5.856208038330078125e+01
5.698191452026367188e+01
5.540173339843750000e+01
5.382149124145507812e+01
5.224132537841796875e+01
5.066116333007812500e+01
4.908089828491210938e+01
4.789573669433593750e+01
4.671047210693359375e+01
4.552531051635742188e+01
4.466400146484375000e+01
4.347909927368164062e+01
4.236462020874023438e+01
4.189920043945312500e+01
4.117919158935546875e+01
4.071419906616210938e+01
3.992419815063476562e+01
3.952930068969726562e+01
3.873929977416992188e+01
3.834429931640625000e+01
3.762271118164062500e+01
3.715940093994140625e+01
3.676440048217773438e+01
3.636940002441406250e+01
3.557939910888671875e+01
3.525149536132812500e+01
3.518439865112304688e+01
3.439450073242187500e+01
3.399950027465820312e+01
3.360449981689453125e+01
3.320949935913085938e+01
3.320949935913085938e+01
3.281449890136718750e+01
3.281449890136718750e+01
3.241960144042968750e+01
3.202460098266601562e+01
3.162960052490234375e+01
3.123460006713867188e+01
3.083959960937500000e+01
3.044459915161132812e+01
3.011282920837402344e+01
2.971758079528808594e+01
2.965469932556152344e+01
2.932205390930175781e+01
2.925970077514648438e+01
2.892652702331542969e+01
2.886470031738281250e+01
2.853100013732910156e+01
2.880366325378417969e+01
2.846969985961914062e+01
2.846969985961914062e+01
2.807480049133300781e+01
2.785303688049316406e+01
2.767980003356933594e+01
2.728479957580566406e+01
2.728479957580566406e+01
2.671761703491210938e+01
2.632287979125976562e+01
2.609980010986328125e+01
2.592845153808593750e+01
2.570490074157714844e+01
2.570490074157714844e+01
2.570490074157714844e+01
2.530990028381347656e+01
2.530990028381347656e+01
2.514008712768554688e+01
2.491489982604980469e+01
2.491489982604980469e+01
2.491489982604980469e+01
2.491489982604980469e+01
2.451989936828613281e+01
2.451989936828613281e+01
2.412490081787109375e+01
2.412490081787109375e+01
2.412490081787109375e+01
2.412490081787109375e+01
2.372990036010742188e+01
2.372990036010742188e+01
2.372990036010742188e+01
2.372990036010742188e+01
2.372990036010742188e+01
2.372990036010742188e+01
2.372990036010742188e+01
2.372990036010742188e+01
2.372990036010742188e+01
2.372990036010742188e+01
2.372990036010742188e+01
2.372990036010742188e+01
2.372990036010742188e+01
2.372990036010742188e+01
2.372990036010742188e+01
2.372990036010742188e+01
2.372990036010742188e+01
2.372990036010742188e+01
2.412490081787109375e+01
2.412490081787109375e+01
2.412490081787109375e+01
2.435851478576660156e+01
2.451989936828613281e+01
2.451989936828613281e+01
2.451989936828613281e+01
2.468023109436035156e+01
2.491489982604980469e+01
2.491489982604980469e+01
2.530990028381347656e+01
2.554562187194824219e+01
2.570490074157714844e+01
2.586361122131347656e+01
2.609980010986328125e+01
2.609980010986328125e+01
2.609980010986328125e+01
2.649480056762695312e+01
2.688979911804199219e+01
2.688979911804199219e+01
2.712789344787597656e+01
2.728479957580566406e+01
2.728479957580566406e+01
2.752368354797363281e+01
2.767980003356933594e+01
2.807480049133300781e+01
2.831441307067871094e+01
2.870963668823242188e+01
2.925970077514648438e+01
2.965469932556152344e+01
3.132105445861816406e+01
3.266053009033203125e+01
3.360449981689453125e+01
3.582091522216796875e+01
3.794929885864257812e+01
4.016624450683593750e+01
4.293140792846679688e+01
4.569657135009765625e+01
4.830956649780273438e+01
5.098379898071289062e+01
5.280706024169921875e+01
5.517722320556640625e+01
5.715238571166992188e+01
5.848839950561523438e+01
5.952281570434570312e+01
6.085829925537109375e+01
6.164830017089843750e+01
6.204330062866210938e+01
6.243830108642578125e+01
6.283319854736328125e+01
6.283319854736328125e+01
6.283319854736328125e+01
6.283319854736328125e+01
6.219151687622070312e+01
6.164830017089843750e+01
6.061098861694335938e+01
5.982082366943359375e+01
5.863556289672851562e+01
5.690850067138671875e+01
5.547519683837890625e+01
5.389497375488281250e+01
5.231480789184570312e+01
5.073464584350585938e+01
4.940380096435546875e+01
4.796921920776367188e+01
4.638901901245117188e+01
4.520379257202148438e+01
4.401859283447265625e+01
4.283336639404296875e+01
4.164820098876953125e+01
4.085793685913085938e+01
3.992419815063476562e+01
3.927751159667968750e+01
3.873929977416992188e+01
3.809198379516601562e+01
3.794929885864257812e+01
3.715940093994140625e+01
3.636940002441406250e+01
3.572103118896484375e+01
3.518439865112304688e+01
3.453560256958007812e+01
3.414034271240234375e+01
3.360449981689453125e+01
3.334981536865234375e+01
3.281449890136718750e+01
3.241960144042968750e+01
3.241960144042968750e+01
3.202460098266601562e+01
3.162960052490234375e+01
3.097833442687988281e+01
3.097807121276855469e+01
3.083959960937500000e+01
3.058254432678222656e+01
3.044459915161132812e+01
3.004969978332519531e+01
3.004969978332519531e+01
2.965469932556152344e+01
2.925970077514648438e+01
2.925970077514648438e+01
2.886470031738281250e+01
2.860553741455078125e+01
2.846969985961914062e+01
2.821007537841796875e+01
2.793975257873535156e+01
2.767980003356933594e+01
2.741931915283203125e+01
2.728479957580566406e+01
2.728479957580566406e+01
2.702352905273437500e+01
2.688979911804199219e+01
2.688979911804199219e+01
2.688979911804199219e+01
2.649480056762695312e+01
2.649480056762695312e+01
2.623194885253906250e+01
2.623168563842773438e+01
2.609980010986328125e+01
2.583622550964355469e+01
2.609980010986328125e+01
2.570490074157714844e+01
2.570490074157714844e+01
2.570490074157714844e+01
2.570490074157714844e+01
2.570490074157714844e+01
2.570490074157714844e+01
2.570490074157714844e+01
2.570490074157714844e+01
2.570490074157714844e+01
2.570490074157714844e+01
2.570490074157714844e+01
2.570490074157714844e+01
2.609980010986328125e+01
2.609980010986328125e+01
2.609980010986328125e+01
2.609980010986328125e+01
2.609980010986328125e+01
2.609980010986328125e+01
2.649480056762695312e+01
2.649480056762695312e+01
2.649480056762695312e+01
2.649480056762695312e+01
2.649480056762695312e+01
2.649480056762695312e+01
2.688979911804199219e+01
2.661904907226562500e+01
2.688979911804199219e+01
2.688979911804199219e+01
2.716134262084960938e+01
2.688979911804199219e+01
2.688979911804199219e+01
2.688979911804199219e+01
2.688979911804199219e+01
2.688979911804199219e+01
2.688979911804199219e+01
2.716318511962890625e+01
2.728479957580566406e+01
2.728479957580566406e+01
2.767980003356933594e+01
2.767980003356933594e+01
2.767980003356933594e+01
2.779983329772949219e+01
2.807480049133300781e+01
2.807480049133300781e+01
2.874545669555664062e+01
2.886470031738281250e+01
2.925970077514648438e+01
2.993124580383300781e+01
3.072140884399414062e+01
3.190667343139648438e+01
3.309183502197265625e+01
3.467210006713867188e+01
3.704226303100585938e+01
3.873929977416992188e+01
4.127098083496093750e+01
4.375775146484375000e+01
4.640676116943359375e+01
4.877718734741210938e+01
5.086824417114257812e+01
5.323840713500976562e+01
5.493360137939453125e+01
5.651350021362304688e+01
5.797892761230468750e+01
5.927840042114257812e+01
5.995442199707031250e+01
6.046329879760742188e+01
6.125329971313476562e+01
6.164830017089843750e+01
6.204330062866210938e+01
6.204330062866210938e+01
6.204330062866210938e+01
6.164830017089843750e+01
6.125329971313476562e+01
6.096990585327148438e+01
6.006840133666992188e+01
5.888339996337890625e+01
5.769850158691406250e+01
5.662405395507812500e+01
5.532860183715820312e+01
5.385862731933593750e+01
5.256370162963867188e+01
5.098379898071289062e+01
4.951303482055664062e+01
4.793287277221679688e+01
4.646139144897460938e+01
4.505899810791015625e+01
4.398225402832031250e+01
4.240201950073242188e+01
4.150419998168945312e+01
4.042659378051757812e+01
3.992419815063476562e+01
3.924116516113281250e+01
3.873929977416992188e+01
3.794929885864257812e+01
3.755429840087890625e+01
3.715940093994140625e+01
3.676440048217773438e+01
3.597439956665039062e+01
3.557939910888671875e+01
3.518439865112304688e+01
3.478950119018554688e+01
3.449872970581054688e+01
3.399950027465820312e+01
3.399950027465820312e+01
3.360449981689453125e+01
3.360449981689453125e+01
3.320949935913085938e+01
3.281449890136718750e+01
3.252196121215820312e+01
3.241960144042968750e+01
3.212646102905273438e+01
3.202460098266601562e+01
3.202460098266601562e+01
3.173067092895507812e+01
3.133540725708007812e+01
3.123460006713867188e+01
3.083959960937500000e+01
3.083959960937500000e+01
3.044459915161132812e+01
3.014916610717773438e+01
3.004969978332519531e+01
2.965469932556152344e+01
2.965469932556152344e+01
2.925970077514648438e+01
2.925970077514648438e+01
2.886470031738281250e+01
2.886470031738281250e+01
2.886470031738281250e+01
2.846969985961914062e+01
2.846969985961914062e+01
2.846969985961914062e+01
2.846969985961914062e+01
2.807480049133300781e+01
2.807480049133300781e+01
2.807480049133300781e+01
2.807480049133300781e+01
2.807480049133300781e+01
2.807480049133300781e+01
2.807480049133300781e+01
2.807480049133300781e+01
2.807480049133300781e+01
2.807480049133300781e+01
2.807480049133300781e+01
2.807480049133300781e+01
2.807480049133300781e+01
2.807480049133300781e+01
2.807480049133300781e+01
2.807480049133300781e+01
2.846969985961914062e+01
2.807480049133300781e+01
2.846969985961914062e+01
2.877363777160644531e+01
2.877390098571777344e+01
2.886470031738281250e+01
2.886470031738281250e+01
2.886470031738281250e+01
2.855944633483886719e+01
2.886470031738281250e+01
2.895391845703125000e+01
2.925970077514648438e+01
2.925970077514648438e+01
2.925970077514648438e+01
2.965469932556152344e+01
3.004969978332519531e+01
3.004969978332519531e+01
3.004969978332519531e+01
3.035750961303710938e+01
3.044459915161132812e+01
3.083959960937500000e+01
3.083959960937500000e+01
3.123460006713867188e+01
3.123460006713867188e+01
3.162960052490234375e+01
3.162960052490234375e+01
3.171460533142089844e+01
3.162960052490234375e+01
3.171407890319824219e+01
3.202460098266601562e+01
3.202460098266601562e+01
3.241960144042968750e+01
3.210802459716796875e+01
3.241960144042968750e+01
3.281449890136718750e+01
3.320949935913085938e+01
3.360449981689453125e+01
3.431239318847656250e+01
3.439450073242187500e+01
3.549781799316406250e+01
3.668308258056640625e+01
3.786824417114257812e+01
3.873929977416992188e+01
4.134314346313476562e+01
4.371357345581054688e+01
4.584899902343750000e+01
4.845442581176757812e+01
5.090432739257812500e+01
5.319527816772460938e+01
5.524965286254882812e+01
5.690850067138671875e+01
5.919997787475585938e+01
6.078014373779296875e+01
6.204330062866210938e+01
6.283319854736328125e+01
6.401820373535156250e+01
6.480819702148437500e+01
6.520310211181640625e+01
6.591652679443359375e+01
6.599310302734375000e+01
6.599310302734375000e+01
6.567388916015625000e+01
6.559809875488281250e+01
6.480819702148437500e+01
6.441320037841796875e+01
6.362319946289062500e+01
6.251275253295898438e+01
6.132750701904296875e+01
6.006840133666992188e+01
5.856208038330078125e+01
5.698191452026367188e+01
5.540173339843750000e+01
5.382149124145507812e+01
5.224132537841796875e+01
5.066116333007812500e+01
4.908089828491210938e+01
4.789573669433593750e+01
4.671047210693359375e+01
4.552531051635742188e+01
4.466400146484375000e+01
4.347909927368164062e+01
4.236462020874023438e+01
4.189920043945312500e+01
4.117919158935546875e+01
4.071419906616210938e+01
3.992419815063476562e+01
3.952930068969726562e+01
3.873929977416992188e+01
3.834429931640625000e+01
3.762271118164062500e+01
3.715940093994140625e+01
3.676440048217773438e+01
3.636940002441406250e+01
3.557939910888671875e+01
3.525149536132812500e+01
3.518439865112304688e+01
3.439450073242187500e+01
3.399950027465820312e+01
3.360449981689453125e+01
3.320949935913085938e+01
3.320949935913085938e+01
3.281449890136718750e+01
3.281449890136718750e+01
3.241960144042968750e+01
3.202460098266601562e+01
3.162960052490234375e+01
3.123460006713867188e+01
3.083959960937500000e+01
3.044459915161132812e+01
3.011282920837402344e+01
2.971758079528808594e+01
2.965469932556152344e+01
2.932205390930175781e+01
2.925970077514648438e+01
2.892652702331542969e+01
2.886470031738281250e+01
2.853100013732910156e+01
2.880366325378417969e+01
2.846969985961914062e+01
2.846969985961914062e+01
2.807480049133300781e+01
2.785303688049316406e+01
2.767980003356933594e+01
2.728479957580566406e+01
2.728479957580566406e+01
2.671761703491210938e+01
2.632287979125976562e+01
2.609980010986328125e+01
2.592845153808593750e+01
2.570490074157714844e+01
2.570490074157714844e+01
2.570490074157714844e+01
2.530990028381347656e+01
2.530990028381347656e+01
2.514008712768554688e+01
2.491489982604980469e+01
2.491489982604980469e+01
2.491489982604980469e+01
2.491489982604980469e+01
2.451989936828613281e+01
2.451989936828613281e+01
2.412490081787109375e+01
2.412490081787109375e+01
2.412490081787109375e+01
2.412490081787109375e+01
2.372990036010742188e+01
2.372990036010742188e+01
2.372990036010742188e+01
2.372990036010742188e+01
2.372990036010742188e+01
2.372990036010742188e+01
2.372990036010742188e+01
2.372990036010742188e+01
2.372990036010742188e+01
2.372990036010742188e+01
2.372990036010742188e+01
2.372990036010742188e+01
2.372990036010742188e+01
2.372990036010742188e+01
2.372990036010742188e+01
2.372990036010742188e+01
2.372990036010742188e+01
2.372990036010742188e+01
2.412490081787109375e+01
2.412490081787109375e+01
2.412490081787109375e+01
2.435851478576660156e+01
2.451989936828613281e+01
2.451989936828613281e+01
2.451989936828613281e+01
2.468023109436035156e+01
2.491489982604980469e+01
2.491489982604980469e+01
2.530990028381347656e+01
2.554562187194824219e+01
2.570490074157714844e+01
2.586361122131347656e+01
2.609980010986328125e+01
2.609980010986328125e+01
2.609980010986328125e+01
2.649480056762695312e+01
2.688979911804199219e+01
2.688979911804199219e+01
2.712789344787597656e+01
2.728479957580566406e+01
2.728479957580566406e+01
2.752368354797363281e+01
2.767980003356933594e+01
2.807480049133300781e+01
2.831441307067871094e+01
2.870963668823242188e+01
2.925970077514648438e+01
2.965469932556152344e+01
3.132105445861816406e+01
3.266053009033203125e+01
3.360449981689453125e+01
3.582091522216796875e+01
3.794929885864257812e+01
4.016624450683593750e+01
4.293140792846679688e+01
4.569657135009765625e+01
4.830956649780273438e+01
5.098379898071289062e+01
5.280706024169921875e+01
5.517722320556640625e+01
5.715238571166992188e+01
5.848839950561523438e+01
5.952281570434570312e+01
6.085829925537109375e+01
6.164830017089843750e+01
6.204330062866210938e+01
6.243830108642578125e+01
6.283319854736328125e+01
6.283319854736328125e+01
6.283319854736328125e+01
6.283319854736328125e+01
6.219151687622070312e+01
6.164830017089843750e+01
6.061098861694335938e+01
5.982082366943359375e+01
5.863556289672851562e+01
5.690850067138671875e+01
5.547519683837890625e+01
5.389497375488281250e+01
5.231480789184570312e+01
5.073464584350585938e+01
4.940380096435546875e+01
4.796921920776367188e+01
4.638901901245117188e+01
4.520379257202148438e+01
4.401859283447265625e+01
4.283336639404296875e+01
4.164820098876953125e+01
4.085793685913085938e+01
3.992419815063476562e+01
3.927751159667968750e+01
3.873929977416992188e+01
3.809198379516601562e+01
3.794929885864257812e+01
3.715940093994140625e+01
3.636940002441406250e+01
3.572103118896484375e+01
3.518439865112304688e+01
3.453560256958007812e+01
3.414034271240234375e+01
3.360449981689453125e+01
3.334981536865234375e+01
3.281449890136718750e+01
3.241960144042968750e+01
3.241960144042968750e+01
3.202460098266601562e+01
3.162960052490234375e+01
3.097833442687988281e+01
3.097807121276855469e+01
3.083959960937500000e+01
3.058254432678222656e+01
3.044459915161132812e+01
3.004969978332519531e+01
3.004969978332519531e+01
2.965469932556152344e+01
2.925970077514648438e+01
2.925970077514648438e+01
2.886470031738281250e+01
2.860553741455078125e+01
2.846969985961914062e+01
2.821007537841796875e+01
2.793975257873535156e+01
2.767980003356933594e+01
2.741931915283203125e+01
2.728479957580566406e+01
2.728479957580566406e+01
2.702352905273437500e+01
2.688979911804199219e+01
2.688979911804199219e+01
2.688979911804199219e+01
2.649480056762695312e+01
2.649480056762695312e+01
2.623194885253906250e+01
2.623168563842773438e+01
2.609980010986328125e+01
2.583622550964355469e+01
2.609980010986328125e+01
2.570490074157714844e+01
2.570490074157714844e+01
2.570490074157714844e+01
2.570490074157714844e+01
2.570490074157714844e+01
2.570490074157714844e+01
2.570490074157714844e+01
2.570490074157714844e+01
2.570490074157714844e+01
2.570490074157714844e+01
2.570490074157714844e+01
2.570490074157714844e+01
2.609980010986328125e+01
2.609980010986328125e+01
2.609980010986328125e+01
2.609980010986328125e+01
2.609980010986328125e+01
2.609980010986328125e+01
2.649480056762695312e+01
2.649480056762695312e+01
2.649480056762695312e+01
2.649480056762695312e+01
2.649480056762695312e+01
2.649480056762695312e+01
2.688979911804199219e+01
2.661904907226562500e+01
2.688979911804199219e+01
2.688979911804199219e+01
2.716134262084960938e+01
2.688979911804199219e+01
2.688979911804199219e+01
2.688979911804199219e+01
2.688979911804199219e+01
2.688979911804199219e+01
2.688979911804199219e+01
2.716318511962890625e+01
2.728479957580566406e+01
2.728479957580566406e+01
2.767980003356933594e+01
2.767980003356933594e+01
2.767980003356933594e+01
2.779983329772949219e+01
2.807480049133300781e+01
2.807480049133300781e+01
2.874545669555664062e+01
2.886470031738281250e+01
2.925970077514648438e+01
2.993124580383300781e+01
3.072140884399414062e+01
3.190667343139648438e+01
3.309183502197265625e+01
3.467210006713867188e+01
3.704226303100585938e+01
3.873929977416992188e+01
4.127098083496093750e+01
4.375775146484375000e+01
4.640676116943359375e+01
4.877718734741210938e+01
5.086824417114257812e+01
5.323840713500976562e+01
5.493360137939453125e+01
5.651350021362304688e+01
5.797892761230468750e+01
5.927840042114257812e+01
5.995442199707031250e+01
6.046329879760742188e+01
6.125329971313476562e+01
6.164830017089843750e+01
6.204330062866210938e+01
6.204330062866210938e+01
6.204330062866210938e+01
6.164830017089843750e+01
6.125329971313476562e+01
6.096990585327148438e+01
6.006840133666992188e+01
5.888339996337890625e+01
5.769850158691406250e+01
5.662405395507812500e+01
5.532860183715820312e+01
5.385862731933593750e+01
5.256370162963867188e+01
5.098379898071289062e+01
4.951303482055664062e+01
4.793287277221679688e+01
4.646139144897460938e+01
4.505899810791015625e+01
4.398225402832031250e+01
4.240201950073242188e+01
4.150419998168945312e+01
4.042659378051757812e+01
3.992419815063476562e+01
3.924116516113281250e+01
3.873929977416992188e+01
3.794929885864257812e+01
3.755429840087890625e+01
3.715940093994140625e+01
3.676440048217773438e+01
3.597439956665039062e+01
3.557939910888671875e+01
3.518439865112304688e+01
3.478950119018554688e+01
3.449872970581054688e+01
3.399950027465820312e+01
3.399950027465820312e+01
3.360449981689453125e+01
3.360449981689453125e+01
3.320949935913085938e+01
3.281449890136718750e+01
3.252196121215820312e+01
3.241960144042968750e+01
3.212646102905273438e+01
3.202460098266601562e+01
3.202460098266601562e+01
3.173067092895507812e+01
3.133540725708007812e+01
3.123460006713867188e+01
3.083959960937500000e+01
3.083959960937500000e+01
3.044459915161132812e+01
3.014916610717773438e+01
3.004969978332519531e+01
2.965469932556152344e+01
2.965469932556152344e+01
2.925970077514648438e+01
2.925970077514648438e+01
2.886470031738281250e+01
2.886470031738281250e+01
2.886470031738281250e+01
2.846969985961914062e+01
2.846969985961914062e+01
2.846969985961914062e+01
2.846969985961914062e+01
2.807480049133300781e+01
2.807480049133300781e+01
2.807480049133300781e+01
2.807480049133300781e+01
2.807480049133300781e+01
2.807480049133300781e+01
2.807480049133300781e+01
2.807480049133300781e+01
2.807480049133300781e+01
2.807480049133300781e+01
2.807480049133300781e+01
2.807480049133300781e+01
2.807480049133300781e+01
2.807480049133300781e+01
2.807480049133300781e+01
2.807480049133300781e+01
2.846969985961914062e+01
2.807480049133300781e+01
2.846969985961914062e+01
2.877363777160644531e+01
2.877390098571777344e+01
2.886470031738281250e+01
2.886470031738281250e+01
2.886470031738281250e+01
2.855944633483886719e+01
2.886470031738281250e+01
2.895391845703125000e+01
2.925970077514648438e+01
2.925970077514648438e+01
2.925970077514648438e+01
2.965469932556152344e+01
3.004969978332519531e+01
3.004969978332519531e+01
3.004969978332519531e+01
3.035750961303710938e+01
3.044459915161132812e+01
3.083959960937500000e+01
3.083959960937500000e+01
3.123460006713867188e+01
3.123460006713867188e+01
3.162960052490234375e+01
3.162960052490234375e+01
3.171460533142089844e+01
3.162960052490234375e+01
3.171407890319824219e+01
3.202460098266601562e+01
3.202460098266601562e+01
3.241960144042968750e+01
3.210802459716796875e+01
3.241960144042968750e+01
3.281449890136718750e+01
3.320949935913085938e+01
3.360449981689453125e+01
3.431239318847656250e+01
3.439450073242187500e+01
3.549781799316406250e+01
3.668308258056640625e+01
3.786824417114257812e+01
3.873929977416992188e+01
4.134314346313476562e+01
4.371357345581054688e+01
4.584899902343750000e+01
4.845442581176757812e+01
5.090432739257812500e+01
5.319527816772460938e+01
5.524965286254882812e+01
5.690850067138671875e+01
5.919997787475585938e+01
6.078014373779296875e+01
6.204330062866210938e+01
6.283319854736328125e+01
6.401820373535156250e+01
6.480819702148437500e+01
6.520310211181640625e+01
6.591652679443359375e+01
6.599310302734375000e+01
6.599310302734375000e+01
6.567388916015625000e+01
6.559809875488281250e+01
6.480819702148437500e+01
6.441320037841796875e+01
6.362319946289062500e+01
6.251275253295898438e+01
6.132750701904296875e+01
6.006840133666992188e+01
5.856208038330078125e+01
5.698191452026367188e+01
5.540173339843750000e+01
5.382149124145507812e+01
5.224132537841796875e+01
5.066116333007812500e+01
4.908089828491210938e+01
4.789573669433593750e+01
4.671047210693359375e+01
4.552531051635742188e+01
4.466400146484375000e+01
4.347909927368164062e+01
4.236462020874023438e+01
4.189920043945312500e+01
4.117919158935546875e+01
4.071419906616210938e+01
3.992419815063476562e+01
3.952930068969726562e+01
3.873929977416992188e+01
3.834429931640625000e+01
3.762271118164062500e+01
3.715940093994140625e+01
3.676440048217773438e+01
3.636940002441406250e+01
3.557939910888671875e+01
3.525149536132812500e+01
3.518439865112304688e+01
3.439450073242187500e+01
3.399950027465820312e+01
3.360449981689453125e+01
3.320949935913085938e+01
3.320949935913085938e+01
3.281449890136718750e+01
3.281449890136718750e+01
3.241960144042968750e+01
3.202460098266601562e+01
3.162960052490234375e+01
3.123460006713867188e+01
3.083959960937500000e+01
3.044459915161132812e+01
3.011282920837402344e+01
2.971758079528808594e+01
2.965469932556152344e+01
2.932205390930175781e+01
2.925970077514648438e+01
2.892652702331542969e+01
2.886470031738281250e+01
2.853100013732910156e+01
2.880366325378417969e+01
2.846969985961914062e+01
2.846969985961914062e+01
2.813503265380859375e+01
2.807480049133300781e+01
2.807480049133300781e+01
2.807480049133300781e+01
2.773899459838867188e+01
2.767980003356933594e+01
2.767980003356933594e+01
2.762139701843261719e+01
2.728479957580566406e+01
2.722692298889160156e+01
2.694741439819335938e+01
2.688979911804199219e+01
2.655188751220703125e+01
2.683297729492187500e+01
2.688979911804199219e+01
2.688979911804199219e+01
2.688979911804199219e+01
2.688979911804199219e+01
2.722929382324218750e+01
2.688979911804199219e+01
2.728479957580566406e+01
2.728479957580566406e+01
2.728479957580566406e+01
2.762561035156250000e+01
2.767980003356933594e+01
2.767980003356933594e+01
2.762639999389648438e+01
2.767980003356933594e+01
2.767980003356933594e+01
2.767980003356933594e+01
2.773214530944824219e+01
2.807480049133300781e+01
2.807480049133300781e+01
2.807480049133300781e+01
2.807480049133300781e+01
2.807480049133300781e+01
2.807480049133300781e+01
2.812528991699218750e+01
2.846969985961914062e+01
2.807480049133300781e+01
2.846943664550781250e+01
2.846969985961914062e+01
2.807559013366699219e+01
2.846969985961914062e+01
2.846969985961914062e+01
2.846969985961914062e+01
2.846969985961914062e+01
2.846969985961914062e+01
2.886470031738281250e+01
2.886470031738281250e+01
2.886470031738281250e+01
2.886470031738281250e+01
2.886470031738281250e+01
2.886470031738281250e+01
2.886470031738281250e+01
2.925970077514648438e+01
2.925970077514648438e+01
2.925970077514648438e+01
2.965469932556152344e+01
2.965469932556152344e+01
2.965469932556152344e+01
2.965469932556152344e+01
3.004969978332519531e+01
3.004337882995605469e+01
3.004969978332519531e+01
3.004969978332519531e+01
3.004969978332519531e+01
3.004969978332519531e+01
2.966233825683593750e+01
3.004969978332519531e+01
3.004969978332519531e+01
3.044459915161132812e+01
3.044459915161132812e+01
3.044459915161132812e+01
3.083959960937500000e+01
3.123460006713867188e+01
3.124434471130371094e+01
3.241960144042968750e+01
3.282477188110351562e+01
3.362556838989257812e+01
3.557939910888671875e+01
3.677546310424804688e+01
3.835562515258789062e+01
4.071419906616210938e+01
4.270095062255859375e+01
4.505899810791015625e+01
4.704627990722656250e+01
4.940380096435546875e+01
5.137870025634765625e+01
5.297187042236328125e+01
5.453860092163085938e+01
5.573719406127929688e+01
5.692245864868164062e+01
5.769850158691406250e+01
5.848839950561523438e+01
5.926364898681640625e+01
5.967340087890625000e+01
6.006840133666992188e+01
6.046329879760742188e+01
6.046329879760742188e+01
6.046329879760742188e+01
6.006840133666992188e+01
6.006840133666992188e+01
5.967340087890625000e+01
5.927840042114257812e+01
5.848839950561523438e+01
5.768085479736328125e+01
5.611849975585937500e+01
5.493360137939453125e+01
5.335369873046875000e+01
5.215000152587890625e+01
5.096483612060546875e+01
4.900880050659179688e+01
4.782389831542968750e+01
4.661915206909179688e+01
4.545399856567382812e+01
4.426900100708007812e+01
4.345855712890625000e+01
4.227330017089843750e+01
4.150419998168945312e+01
4.071419906616210938e+01
4.029760360717773438e+01
3.952930068969726562e+01
3.913430023193359375e+01
3.836668777465820312e+01
3.794929885864257812e+01
3.755429840087890625e+01
3.753112792968750000e+01
3.676440048217773438e+01
3.636940002441406250e+01
3.597439956665039062e+01
3.595016860961914062e+01
3.555490493774414062e+01
3.518439865112304688e+01
3.478950119018554688e+01
3.441978454589843750e+01
3.476395416259765625e+01
3.439450073242187500e+01
3.399950027465820312e+01
3.363083648681640625e+01
3.399950027465820312e+01
3.360449981689453125e+01
3.357737350463867188e+01
3.320949935913085938e+01
3.320949935913085938e+01
3.320949935913085938e+01
3.284268188476562500e+01
3.281449890136718750e+01
3.241960144042968750e+01
3.241960144042968750e+01
3.202460098266601562e+01
3.239010238647460938e+01
3.202460098266601562e+01
3.202460098266601562e+01
3.162960052490234375e+01
3.162960052490234375e+01
3.162960052490234375e+01
3.123460006713867188e+01
3.123460006713867188e+01
3.123460006713867188e+01
3.083959960937500000e+01
3.083959960937500000e+01
3.083959960937500000e+01
3.083959960937500000e+01
3.044459915161132812e+01
3.044459915161132812e+01
3.044459915161132812e+01
3.004969978332519531e+01
3.008366775512695312e+01
3.004969978332519531e+01
3.004969978332519531e+01
3.004969978332519531e+01
3.004969978332519531e+01
3.004969978332519531e+01
3.008524703979492188e+01
3.044459915161132812e+01
3.044459915161132812e+01
3.044459915161132812e+01
3.044459915161132812e+01
3.044459915161132812e+01
3.044459915161132812e+01
3.044459915161132812e+01
3.083959960937500000e+01
3.119667434692382812e+01
3.123460006713867188e+01
3.123460006713867188e+01
3.123460006713867188e+01
3.087858009338378906e+01
3.123460006713867188e+01
3.123460006713867188e+01
3.123460006713867188e+01
3.162960052490234375e+01
3.162960052490234375e+01
3.162960052490234375e+01
3.167042350769042969e+01
3.167068672180175781e+01
3.237825012207031250e+01
3.202460098266601562e+01
3.241960144042968750e+01
3.206674194335937500e+01
3.241960144042968750e+01
3.277184295654296875e+01
3.277157974243164062e+01
3.285769271850585938e+01
3.285795593261718750e+01
3.320949935913085938e+01
3.320949935913085938e+01
3.320949935913085938e+01
3.325400924682617188e+01
3.360449981689453125e+01
3.364953613281250000e+01
3.399950027465820312e+01
3.439450073242187500e+01
3.483531570434570312e+01
3.557939910888671875e+01
3.641575622558593750e+01
3.760091781616210938e+01
3.913430023193359375e+01
4.076134490966796875e+01
4.238891601562500000e+01
4.510667037963867188e+01
4.747683334350585938e+01
4.984699630737304688e+01
5.182216262817382812e+01
5.384605026245117188e+01
5.651350021362304688e+01
5.774773788452148438e+01
5.888339996337890625e+01
6.011816406250000000e+01
6.090834045410156250e+01
6.164830017089843750e+01
6.243830108642578125e+01
6.283319854736328125e+01
6.322819900512695312e+01
6.327956008911132812e+01
6.362319946289062500e+01
6.362319946289062500e+01
6.357105255126953125e+01
6.317578887939453125e+01
6.283319854736328125e+01
6.204330062866210938e+01
6.159509658813476562e+01
6.040984725952148438e+01
5.927840042114257812e+01
5.803942108154296875e+01
5.685424423217773438e+01
5.561447525024414062e+01
5.374860000610351562e+01
5.250865554809570312e+01
5.132340621948242188e+01
4.979880142211914062e+01
4.855806350708007812e+01
4.697780227661132812e+01
4.584899902343750000e+01
4.505899810791015625e+01
4.381721115112304688e+01
4.308409881591796875e+01
4.229410171508789062e+01
4.150419998168945312e+01
4.110919952392578125e+01
4.031919860839843750e+01
3.986574554443359375e+01
3.947056579589843750e+01
3.873929977416992188e+01
3.834429931640625000e+01
3.794929885864257812e+01
3.755429840087890625e+01
3.715940093994140625e+01
3.676440048217773438e+01
3.636940002441406250e+01
3.597439956665039062e+01
3.591329574584960938e+01
3.551803207397460938e+01
3.518439865112304688e+01
3.478950119018554688e+01
3.478950119018554688e+01
3.445692062377929688e+01
3.406218338012695312e+01
3.399950027465820312e+01
3.360449981689453125e+01
3.354102706909179688e+01
3.360449981689453125e+01
3.320949935913085938e+01
3.314523696899414062e+01
3.241960144042968750e+01
3.169439125061035156e+01
3.195954513549804688e+01
3.162960052490234375e+01
3.123460006713867188e+01
3.123460006713867188e+01
3.083959960937500000e+01
3.044459915161132812e+01
3.044459915161132812e+01
3.044459915161132812e+01
3.004969978332519531e+01
3.004969978332519531e+01
3.004969978332519531e+01
2.965469932556152344e+01
2.925970077514648438e+01
2.925970077514648438e+01
2.893344116210937500e+01
2.893370437622070312e+01
2.886470031738281250e+01
2.886470031738281250e+01
2.853949546813964844e+01
2.846969985961914062e+01
2.846969985961914062e+01
2.807480049133300781e+01
2.807480049133300781e+01
2.767980003356933594e+01
2.767980003356933594e+01
2.767980003356933594e+01
2.767980003356933594e+01
2.767980003356933594e+01
2.767980003356933594e+01
2.767980003356933594e+01
2.767980003356933594e+01
2.767980003356933594e+01
2.767980003356933594e+01
2.712427139282226562e+01
2.728479957580566406e+01
2.728479957580566406e+01
2.728479957580566406e+01
2.752032470703125000e+01
2.767980003356933594e+01
2.767980003356933594e+01
2.807480049133300781e+01
2.791637802124023438e+01
2.807480049133300781e+01
2.807480049133300781e+01
2.807480049133300781e+01
2.807480049133300781e+01
2.807480049133300781e+01
2.831289863586425781e+01
2.846969985961914062e+01
2.846969985961914062e+01
2.886470031738281250e+01
2.886470031738281250e+01
2.886470031738281250e+01
2.965469932556152344e+01
2.989470291137695312e+01
3.044459915161132812e+01
3.083959960937500000e+01
3.187039184570312500e+01
3.305555725097656250e+01
3.399950027465820312e+01
3.518439865112304688e+01
3.740118408203125000e+01
3.937640762329101562e+01
4.159394454956054688e+01
4.420694732666015625e+01
4.663890075683593750e+01
4.910016632080078125e+01
5.122716522216796875e+01
5.359732818603515625e+01
5.557249069213867188e+01
5.715271759033203125e+01
5.833787918090820312e+01
5.967340087890625000e+01
6.046329879760742188e+01
6.085829925537109375e+01
6.125329971313476562e+01
6.164830017089843750e+01
6.149935913085937500e+01
6.164830017089843750e+01
6.125329971313476562e+01
6.046329879760742188e+01
5.967340087890625000e+01
5.863602447509765625e+01
5.730350112915039062e+01
5.547565841674804688e+01
5.389543151855468750e+01
5.231526947021484375e+01
5.058879852294921875e+01
4.915484237670898438e+01
4.717967987060546875e+01
4.574503326416015625e+01
4.441425323486328125e+01
4.347909927368164062e+01
4.229410171508789062e+01
4.164866256713867188e+01
4.085839843750000000e+01
3.967319869995117188e+01
3.927797317504882812e+01
3.873929977416992188e+01
3.834429931640625000e+01
3.794929885864257812e+01
3.730198287963867188e+01
3.676440048217773438e+01
3.636940002441406250e+01
3.597439956665039062e+01
3.518439865112304688e+01
3.518439865112304688e+01
3.478950119018554688e+01
3.439450073242187500e+01
3.439450073242187500e+01
3.439450073242187500e+01
3.399950027465820312e+01
3.399950027465820312e+01
3.360449981689453125e+01
3.360449981689453125e+01
3.320949935913085938e+01
3.281449890136718750e+01
3.267613220214843750e+01
3.216274261474609375e+01
3.202460098266601562e+01
3.162960052490234375e+01
3.123460006713867188e+01
3.097668838500976562e+01
3.083959960937500000e+01
3.044459915161132812e+01
3.004969978332519531e+01
3.004969978332519531e+01
2.965469932556152344e+01
2.939520835876464844e+01
2.925970077514648438e+01
2.925970077514648438e+01
2.886470031738281250e+01
2.886470031738281250e+01
2.886470031738281250e+01
2.860362815856933594e+01
2.860336303710937500e+01
2.846969985961914062e+01
2.846969985961914062e+01
2.833686065673828125e+01
2.807480049133300781e+01
2.807480049133300781e+01
2.767980003356933594e+01
2.767980003356933594e+01
2.767980003356933594e+01
2.767980003356933594e+01
2.767980003356933594e+01
2.767980003356933594e+01
2.767980003356933594e+01
2.767980003356933594e+01
2.767980003356933594e+01
2.767980003356933594e+01
2.767980003356933594e+01
2.767980003356933594e+01
2.767980003356933594e+01
2.755113983154296875e+01
2.767980003356933594e+01
2.767980003356933594e+01
2.780767059326171875e+01
2.794719314575195312e+01
2.807480049133300781e+01
2.807480049133300781e+01
2.807480049133300781e+01
2.807480049133300781e+01
2.807480049133300781e+01
2.834370613098144531e+01
2.807480049133300781e+01
2.780529975891113281e+01
2.834449577331542969e+01
2.846969985961914062e+01
2.834502220153808594e+01
2.846969985961914062e+01
2.846969985961914062e+01
2.846969985961914062e+01
2.859335517883300781e+01
2.874130821228027344e+01
2.874157142639160156e+01
2.886470031738281250e+01
2.886470031738281250e+01
2.925970077514648438e+01
2.925970077514648438e+01
2.925970077514648438e+01
2.953315162658691406e+01
2.938098526000976562e+01
2.965469932556152344e+01
3.004969978332519531e+01
3.004969978332519531e+01
3.032439804077148438e+01
3.044459915161132812e+01
3.044459915161132812e+01
3.044459915161132812e+01
3.083959960937500000e+01
3.111568450927734375e+01
3.135325050354003906e+01
3.162960052490234375e+01
3.190647506713867188e+01
3.202460098266601562e+01
3.241960144042968750e+01
3.269719696044921875e+01
3.293157196044921875e+01
3.360449981689453125e+01
3.427795410156250000e+01
3.506814956665039062e+01
3.557939910888671875e+01
3.704364395141601562e+01
3.862380981445312500e+01
4.020397186279296875e+01
4.206420135498046875e+01
4.415432739257812500e+01
4.652449035644531250e+01
4.889465332031250000e+01
5.086988830566406250e+01
5.284505462646484375e+01
5.482021713256835938e+01
5.651350021362304688e+01
5.741635894775390625e+01
5.877080535888671875e+01
6.006840133666992188e+01
6.046329879760742188e+01
6.114149475097656250e+01
6.164830017089843750e+01
6.204330062866210938e+01
6.232728576660156250e+01
6.243830108642578125e+01
6.243830108642578125e+01
6.204330062866210938e+01
6.164830017089843750e+01
6.125329971313476562e+01
6.057273483276367188e+01
5.967340087890625000e+01
5.859730529785156250e+01
5.780711746215820312e+01
5.622687911987304688e+01
5.493360137939453125e+01
5.346152496337890625e+01
5.216870117187500000e+01
5.069612503051757812e+01
4.940380096435546875e+01
4.782389831542968750e+01
4.635050964355468750e+01
4.516527175903320312e+01
4.398008346557617188e+01
4.318984603881835938e+01
4.229410171508789062e+01
4.150419998168945312e+01
4.071419906616210938e+01
3.992419815063476562e+01
3.913430023193359375e+01
3.873929977416992188e+01
3.805320358276367188e+01
3.755429840087890625e+01
3.715940093994140625e+01
3.676440048217773438e+01
3.636940002441406250e+01
3.597439956665039062e+01
3.597439956665039062e+01
3.557939910888671875e+01
3.489126968383789062e+01
3.478950119018554688e+01
3.489074325561523438e+01
3.478950119018554688e+01
3.449524307250976562e+01
3.439450073242187500e+01
3.399950027465820312e+01
3.370445251464843750e+01
3.360449981689453125e+01
3.320949935913085938e+01
3.320949935913085938e+01
3.251847457885742188e+01
3.241960144042968750e+01
3.212297058105468750e+01
3.202460098266601562e+01
3.162960052490234375e+01
3.162960052490234375e+01
3.123460006713867188e+01
3.123460006713867188e+01
3.093639183044433594e+01
3.083959960937500000e+01
3.044459915161132812e+01
3.014567756652832031e+01
3.004969978332519531e+01
2.995422554016113281e+01
2.965469932556152344e+01
2.925970077514648438e+01
2.895938491821289062e+01
2.886470031738281250e+01
2.846969985961914062e+01
2.807480049133300781e+01
2.807480049133300781e+01
2.807480049133300781e+01
2.807480049133300781e+01
2.807480049133300781e+01
2.807480049133300781e+01
2.837740898132324219e+01
2.816682624816894531e+01
2.846969985961914062e+01
2.877317619323730469e+01
2.886470031738281250e+01
2.886470031738281250e+01
2.925970077514648438e+01
2.895516967773437500e+01
2.925970077514648438e+01
2.925970077514648438e+01
2.925970077514648438e+01
2.895411682128906250e+01
2.886470031738281250e+01
2.846969985961914062e+01
2.846969985961914062e+01
2.807480049133300781e+01
2.807480049133300781e+01
2.767980003356933594e+01
2.798722648620605469e+01
2.776710891723632812e+01
2.807480049133300781e+01
2.807480049133300781e+01
2.846969985961914062e+01
2.886470031738281250e+01
2.925970077514648438e+01
2.996397018432617188e+01
3.075413322448730469e+01
3.114939689636230469e+01
3.131954002380371094e+01
3.202460098266601562e+01
3.241960144042968750e+01
3.281449890136718750e+01
3.289838409423828125e+01
3.320949935913085938e+01
3.352114105224609375e+01
3.360449981689453125e+01
3.399950027465820312e+01
3.399950027465820312e+01
3.439450073242187500e+01
3.478950119018554688e+01
3.478950119018554688e+01
3.518439865112304688e+01
3.518439865112304688e+01
3.518439865112304688e+01
3.518439865112304688e+01
3.557939910888671875e+01
3.557939910888671875e+01
3.589446640014648438e+01
3.636940002441406250e+01
3.676440048217773438e+01
3.715940093994140625e+01
3.787041854858398438e+01
3.905568313598632812e+01
4.024084472656250000e+01
4.150419998168945312e+01
4.379627227783203125e+01
4.577143478393554688e+01
4.782389831542968750e+01
5.011676025390625000e+01
5.241015243530273438e+01
5.446208953857421875e+01
5.643725204467773438e+01
5.801743316650390625e+01
5.959767913818359375e+01
6.117784118652343750e+01
6.204330062866210938e+01
6.275828933715820312e+01
6.322819900512695312e+01
6.401820373535156250e+01
6.441320037841796875e+01
6.512924194335937500e+01
6.527671051025390625e+01
6.480819702148437500e+01
6.480819702148437500e+01
6.441320037841796875e+01
6.362319946289062500e+01
6.283319854736328125e+01
6.204330062866210938e+01
6.085829925537109375e+01
5.967340087890625000e+01
5.816464233398437500e+01
5.697948074340820312e+01
5.507501602172851562e+01
5.342413711547851562e+01
5.216870117187500000e+01
5.065872573852539062e+01
4.940380096435546875e+01
4.789329910278320312e+01
4.631311798095703125e+01
4.545399856567382812e+01
4.426900100708007812e+01
4.308409881591796875e+01
4.229410171508789062e+01
4.110919952392578125e+01
4.031919860839843750e+01
3.959657669067382812e+01
3.946226882934570312e+01
3.873929977416992188e+01
3.801580429077148438e+01
3.794929885864257812e+01
3.755429840087890625e+01
3.722509765625000000e+01
3.676440048217773438e+01
3.643458557128906250e+01
3.603932189941406250e+01
3.597439956665039062e+01
3.557939910888671875e+01
3.524853134155273438e+01
3.478950119018554688e+01
3.478950119018554688e+01
3.478950119018554688e+01
3.472642135620117188e+01
3.439450073242187500e+01
3.399950027465820312e+01
3.399950027465820312e+01
3.393747329711914062e+01
3.393773651123046875e+01
3.360449981689453125e+01
3.320949935913085938e+01
3.287547302246093750e+01
3.248029327392578125e+01
3.241960144042968750e+01
3.202460098266601562e+01
3.202460098266601562e+01
3.123460006713867188e+01
3.123460006713867188e+01
3.089872741699218750e+01
3.083959960937500000e+01
3.083959960937500000e+01
3.044459915161132812e+01
3.044459915161132812e+01
3.004969978332519531e+01
3.004969978332519531e+01
2.965469932556152344e+01
2.965469932556152344e+01
2.925970077514648438e+01
2.959820556640625000e+01
2.892093086242675781e+01
2.925970077514648438e+01
2.920399665832519531e+01
2.886470031738281250e+01
2.886470031738281250e+01
2.846969985961914062e+01
2.812943649291992188e+01
2.807480049133300781e+01
2.807480049133300781e+01
2.773365974426269531e+01
2.767980003356933594e+01
2.767980003356933594e+01
2.767980003356933594e+01
2.767980003356933594e+01
2.767980003356933594e+01
2.767980003356933594e+01
2.767980003356933594e+01
2.767980003356933594e+01
2.733629035949707031e+01
2.767980003356933594e+01
2.767980003356933594e+01
2.767980003356933594e+01
2.767980003356933594e+01
2.767980003356933594e+01
2.767980003356933594e+01
2.802515411376953125e+01
2.807480049133300781e+01
2.807480049133300781e+01
2.846969985961914062e+01
2.846969985961914062e+01
2.846969985961914062e+01
2.846969985961914062e+01
2.886470031738281250e+01
2.886470031738281250e+01
2.891197586059570312e+01
2.886470031738281250e+01
2.925970077514648438e+01
2.891118621826171875e+01
2.925970077514648438e+01
2.925970077514648438e+01
2.925970077514648438e+01
2.960926818847656250e+01
2.925970077514648438e+01
2.965469932556152344e+01
2.965469932556152344e+01
2.965469932556152344e+01
2.965469932556152344e+01
3.004969978332519531e+01
3.004969978332519531e+01
3.009301376342773438e+01
3.044459915161132812e+01
3.079680061340332031e+01
3.083959960937500000e+01
3.119232749938964844e+01
3.162960052490234375e+01
3.241960144042968750e+01
3.281449890136718750e+01
3.360449981689453125e+01
3.518439865112304688e+01
3.676440048217773438e+01
3.830387115478515625e+01
4.027903366088867188e+01
4.264919662475585938e+01
4.497972488403320312e+01
4.659953689575195312e+01
4.896969985961914062e+01
5.058879852294921875e+01
5.252511596679687500e+01
5.374860000610351562e+01
5.529054260253906250e+01
5.647570419311523438e+01
5.730350112915039062e+01
5.805614089965820312e+01
5.888339996337890625e+01
5.924165725708007812e+01
5.967340087890625000e+01
6.006840133666992188e+01
6.006840133666992188e+01
6.006840133666992188e+01
6.006840133666992188e+01
5.970856094360351562e+01
5.931329727172851562e+01
5.848839950561523438e+01
5.769850158691406250e+01
5.654760742187500000e+01
5.536243438720703125e+01
5.378218078613281250e+01
5.259701538085937500e+01
5.141175460815429688e+01
4.983158874511718750e+01
4.864641952514648438e+01
4.746116256713867188e+01
4.588100051879882812e+01
4.469573593139648438e+01
4.387409973144531250e+01
4.268909835815429688e+01
4.153514862060546875e+01
4.071419906616210938e+01
3.992419815063476562e+01
3.952930068969726562e+01
3.876919174194335938e+01
3.873929977416992188e+01
3.797866821289062500e+01
3.755429840087890625e+01
3.679323959350585938e+01
3.636940002441406250e+01
3.597439956665039062e+01
3.518439865112304688e+01
3.478950119018554688e+01
3.439450073242187500e+01
3.399950027465820312e+01
3.360449981689453125e+01
3.360449981689453125e+01
3.320949935913085938e+01
3.320949935913085938e+01
3.281449890136718750e+01
3.281449890136718750e+01
3.281449890136718750e+01
3.241960144042968750e+01
3.202460098266601562e+01
3.202460098266601562e+01
3.202460098266601562e+01
3.162960052490234375e+01
3.162960052490234375e+01
3.125817298889160156e+01
3.123460006713867188e+01
3.083959960937500000e+01
3.046738243103027344e+01
3.044459915161132812e+01
3.007194900512695312e+01
3.004969978332519531e+01
3.004969978332519531e+01
2.967616462707519531e+01
2.928090095520019531e+01
2.965469932556152344e+01
2.925970077514648438e+01
2.888511085510253906e+01
2.886470031738281250e+01
2.846969985961914062e+01
2.846969985961914062e+01
2.807480049133300781e+01
2.805570602416992188e+01
2.767980003356933594e+01
2.730336761474609375e+01
2.728479957580566406e+01
2.728479957580566406e+01
2.688979911804199219e+01
2.688979911804199219e+01
2.651205062866210938e+01
2.688979911804199219e+01
2.649480056762695312e+01
2.649480056762695312e+01
2.611599731445312500e+01
2.609980010986328125e+01
2.609980010986328125e+01
2.609980010986328125e+01
2.609980010986328125e+01
2.570490074157714844e+01
2.609980010986328125e+01
2.570490074157714844e+01
2.570490074157714844e+01
2.609980010986328125e+01
2.608623886108398438e+01
2.609980010986328125e+01
2.648176193237304688e+01
2.609980010986328125e+01
2.609980010986328125e+01
2.609980010986328125e+01
2.648281669616699219e+01
2.649480056762695312e+01
2.649480056762695312e+01
2.649480056762695312e+01
2.688979911804199219e+01
2.688979911804199219e+01
2.728479957580566406e+01
2.727466011047363281e+01
2.728479957580566406e+01
2.728479957580566406e+01
2.767045021057128906e+01
2.767980003356933594e+01
2.767980003356933594e+01
2.767980003356933594e+01
2.807480049133300781e+01
2.846969985961914062e+01
2.846969985961914062e+01
2.886470031738281250e+01
2.886470031738281250e+01
2.925970077514648438e+01
2.925970077514648438e+01
2.965469932556152344e+01
2.965469932556152344e+01
2.965469932556152344e+01
2.965469932556152344e+01
3.004969978332519531e+01
3.043946456909179688e+01
3.083472824096679688e+01
3.083959960937500000e+01
3.123460006713867188e+01
3.241960144042968750e+01
3.360449981689453125e+01
3.518084716796875000e+01
3.676110839843750000e+01
3.873324203491210938e+01
4.031643295288085938e+01
4.268659973144531250e+01
4.466176223754882812e+01
4.703192520141601562e+01
4.900708770751953125e+01
5.058735275268554688e+01
5.216870117187500000e+01
5.374767684936523438e+01
5.453860092163085938e+01
5.572310638427734375e+01
5.651350021362304688e+01
5.730350112915039062e+01
5.769889450073242188e+01
5.809405899047851562e+01
5.848839950561523438e+01
5.888339996337890625e+01
5.927840042114257812e+01
5.927840042114257812e+01
5.927642440795898438e+01
5.848839950561523438e+01
5.809339904785156250e+01
5.730073547363281250e+01
5.651047134399414062e+01
5.532530593872070312e+01
5.453504562377929688e+01
5.335369873046875000e+01
5.216461944580078125e+01
5.058445358276367188e+01
4.939918899536132812e+01
4.821402740478515625e+01
4.624399948120117188e+01
4.544860076904296875e+01
4.387409973144531250e+01
4.307817459106445312e+01
4.189920043945312500e+01
4.110919952392578125e+01
4.070748519897460938e+01
3.992419815063476562e+01
3.913430023193359375e+01
3.873179244995117188e+01
3.794929885864257812e+01
3.755429840087890625e+01
3.715110397338867188e+01
3.636940002441406250e+01
3.636057662963867188e+01
3.557939910888671875e+01
3.557004928588867188e+01
3.478950119018554688e+01
3.439450073242187500e+01
3.399950027465820312e+01
3.360449981689453125e+01
3.322016525268554688e+01
3.319857025146484375e+01
3.281449890136718750e+01
3.280304718017578125e+01
3.241960144042968750e+01
3.240761566162109375e+01
3.201235198974609375e+01
3.201208877563476562e+01
3.164237403869628906e+01
3.162960052490234375e+01
3.162960052490234375e+01
3.123460006713867188e+01
3.083959960937500000e+01
3.044459915161132812e+01
3.044459915161132812e+01
3.044459915161132812e+01
3.004969978332519531e+01
2.965469932556152344e+01
2.925970077514648438e+01
2.925970077514648438e+01
2.925970077514648438e+01
2.886470031738281250e+01
2.886470031738281250e+01
2.886470031738281250e+01
2.846969985961914062e+01
2.845245361328125000e+01
2.807480049133300781e+01
2.807480049133300781e+01
2.767980003356933594e+01
2.767980003356933594e+01
2.767980003356933594e+01
2.767980003356933594e+01
2.767980003356933594e+01
2.767980003356933594e+01
2.805517768859863281e+01
2.807480049133300781e+01
2.807480049133300781e+01
2.807480049133300781e+01
2.807480049133300781e+01
2.807480049133300781e+01
2.844850349426269531e+01
2.807480049133300781e+01
2.846969985961914062e+01
2.846969985961914062e+01
2.846969985961914062e+01
2.886470031738281250e+01
2.886470031738281250e+01
2.886470031738281250e+01
2.849300956726074219e+01
2.886470031738281250e+01
2.886470031738281250e+01
2.888879966735839844e+01
2.925970077514648438e+01
2.925970077514648438e+01
2.925970077514648438e+01
2.965469932556152344e+01
2.965469932556152344e+01
2.965469932556152344e+01
2.965469932556152344e+01
2.968090629577636719e+01
3.004969978332519531e+01
3.004969978332519531e+01
3.044459915161132812e+01
3.044459915161132812e+01
3.047212219238281250e+01
3.083959960937500000e+01
3.083959960937500000e+01
3.083959960937500000e+01
3.083959960937500000e+01
3.123460006713867188e+01
3.123460006713867188e+01
3.123460006713867188e+01
3.086923027038574219e+01
3.086949348449707031e+01
3.120444297790527344e+01
3.123460006713867188e+01
3.123460006713867188e+01
3.123460006713867188e+01
3.123460006713867188e+01
3.162960052490234375e+01
3.162960052490234375e+01
3.205659866333007812e+01
3.241960144042968750e+01
3.281449890136718750e+01
3.399950027465820312e+01
3.478950119018554688e+01
3.561271667480468750e+01
3.755429840087890625e+01
3.880698776245117188e+01
4.110919952392578125e+01
4.275784301757812500e+01
4.509363555908203125e+01
4.710369491577148438e+01
4.943896102905273438e+01
5.101921463012695312e+01
5.299438858032226562e+01
5.453860092163085938e+01
5.575971603393554688e+01
5.654997634887695312e+01
5.773523330688476562e+01
5.852540588378906250e+01
5.927840042114257812e+01
6.006840133666992188e+01
6.050109481811523438e+01
6.125329971313476562e+01
6.164830017089843750e+01
6.243830108642578125e+01
6.243830108642578125e+01
6.243830108642578125e+01
6.204330062866210938e+01
6.164830017089843750e+01
6.081839752197265625e+01
6.006840133666992188e+01
5.923797225952148438e+01
5.805271911621093750e+01
5.647254562377929688e+01
5.489237976074218750e+01
5.370713043212890625e+01
5.173195648193359375e+01
5.015179061889648438e+01
4.857162857055664062e+01
4.742890167236328125e+01
4.624399948120117188e+01
4.466400146484375000e+01
4.422568511962890625e+01
4.308409881591796875e+01
4.264524841308593750e+01
4.189920043945312500e+01
4.150419998168945312e+01
4.110919952392578125e+01
4.071419906616210938e+01
4.071419906616210938e+01
3.996963119506835938e+01
3.992419815063476562e+01
3.952930068969726562e+01
3.952930068969726562e+01
3.952930068969726562e+01
3.913430023193359375e+01
3.873929977416992188e+01
3.839157485961914062e+01
3.834429931640625000e+01
3.834429931640625000e+01
3.794929885864257812e+01
3.790097045898437500e+01
3.715940093994140625e+01
3.715940093994140625e+01
3.711027908325195312e+01
3.711001586914062500e+01
3.636940002441406250e+01
3.636940002441406250e+01
3.597439956665039062e+01
3.557939910888671875e+01
3.523509979248046875e+01
3.513344955444335938e+01
3.478950119018554688e+01
3.478950119018554688e+01
3.439450073242187500e+01
3.405151748657226562e+01
3.434222030639648438e+01
3.399950027465820312e+01
3.394669342041015625e+01
3.360449981689453125e+01
3.399950027465820312e+01
3.399950027465820312e+01
3.360449981689453125e+01
3.320949935913085938e+01
3.320949935913085938e+01
3.281449890136718750e+01
3.241960144042968750e+01
3.241960144042968750e+01
3.196915817260742188e+01
3.162960052490234375e+01
3.157363319396972656e+01
3.123460006713867188e+01
3.117810630798339844e+01
3.083959960937500000e+01
3.083959960937500000e+01
3.083959960937500000e+01
3.083959960937500000e+01
3.083959960937500000e+01
3.083959960937500000e+01
3.089793777465820312e+01
3.089820098876953125e+01
3.123460006713867188e+01
3.123460006713867188e+01
3.162960052490234375e+01
3.123460006713867188e+01
3.162960052490234375e+01
3.162960052490234375e+01
3.162960052490234375e+01
3.129530906677246094e+01
3.156862831115722656e+01
3.123460006713867188e+01
3.123460006713867188e+01
3.083959960937500000e+01
3.090162467956542969e+01
3.083959960937500000e+01
3.083959960937500000e+01
3.083959960937500000e+01
3.050767898559570312e+01
3.117125701904296875e+01
3.083959960937500000e+01
3.090346908569335938e+01
3.090373229980468750e+01
3.123460006713867188e+01
3.129925918579101562e+01
3.162960052490234375e+01
3.162960052490234375e+01
3.169504928588867188e+01
3.202460098266601562e+01
3.195862388610839844e+01
3.202460098266601562e+01
3.202460098266601562e+01
3.202460098266601562e+01
3.169662857055664062e+01
3.202460098266601562e+01
3.202460098266601562e+01
3.202460098266601562e+01
3.202460098266601562e+01
3.202460098266601562e+01
3.202460098266601562e+01
3.202460098266601562e+01
3.241960144042968750e+01
3.248898315429687500e+01
3.320949935913085938e+01
3.392957305908203125e+01
3.439450073242187500e+01
3.525485229492187500e+01
3.683511734008789062e+01
3.802027893066406250e+01
3.999544525146484375e+01
4.197068786621093750e+01
4.401762390136718750e+01
4.592103195190429688e+01
4.821889877319335938e+01
4.987136077880859375e+01
5.177370071411132812e+01
5.303178787231445312e+01
5.453860092163085938e+01
5.572349929809570312e+01
5.619237899780273438e+01
5.651350021362304688e+01
5.730350112915039062e+01
5.769850158691406250e+01
5.809339904785156250e+01
5.848839950561523438e+01
5.848839950561523438e+01
5.880767822265625000e+01
5.848839950561523438e+01
5.841215133666992188e+01
5.801690673828125000e+01
5.730350112915039062e+01
5.683146286010742188e+01
5.604119873046875000e+01
5.493360137939453125e+01
5.414360046386718750e+01
5.288060760498046875e+01
5.169534683227539062e+01
5.051018142700195312e+01
4.932491683959960938e+01
4.774475479125976562e+01
4.655951309204101562e+01
4.497932815551757812e+01
4.347909927368164062e+01
4.268909835815429688e+01
4.181873703002929688e+01
4.063347625732421875e+01
3.952930068969726562e+01
3.913430023193359375e+01
3.834429931640625000e+01
3.794929885864257812e+01
3.755429840087890625e+01
3.724168395996093750e+01
3.676440048217773438e+01
3.628656768798828125e+01
3.597439956665039062e+01
3.557939910888671875e+01
3.510079956054687500e+01
3.470561599731445312e+01
3.439450073242187500e+01
3.399950027465820312e+01
3.360449981689453125e+01
3.360449981689453125e+01
3.281449890136718750e+01
3.281449890136718750e+01
3.272879409790039062e+01
3.241960144042968750e+01
3.202460098266601562e+01
3.193807983398437500e+01
3.162960052490234375e+01
3.123460006713867188e+01
3.114729118347167969e+01
3.083959960937500000e+01
3.083959960937500000e+01
3.044459915161132812e+01
3.044459915161132812e+01
3.044459915161132812e+01
3.044459915161132812e+01
3.035546875000000000e+01
3.004969978332519531e+01
3.004969978332519531e+01
2.965469932556152344e+01
2.965469932556152344e+01
2.965469932556152344e+01
2.925970077514648438e+01
2.925970077514648438e+01
2.886470031738281250e+01
2.886470031738281250e+01
2.846969985961914062e+01
2.846969985961914062e+01
2.846969985961914062e+01
2.816735458374023438e+01
2.807480049133300781e+01
2.807480049133300781e+01
2.767980003356933594e+01
2.798116874694824219e+01
2.767980003356933594e+01
2.767980003356933594e+01
2.737922096252441406e+01
2.728479957580566406e+01
2.767980003356933594e+01
2.807480049133300781e+01
2.807480049133300781e+01
2.807480049133300781e+01
2.807480049133300781e+01
2.807480049133300781e+01
2.807480049133300781e+01
2.807480049133300781e+01
2.846969985961914062e+01
2.846969985961914062e+01
2.846969985961914062e+01
2.854634284973144531e+01
2.886470031738281250e+01
2.886470031738281250e+01
2.894213294982910156e+01
2.925970077514648438e+01
2.965469932556152344e+01
2.965469932556152344e+01
2.997121429443359375e+01
3.004969978332519531e+01
2.973371315002441406e+01
3.036534309387207031e+01
3.044459915161132812e+01
3.044459915161132812e+01
3.012974548339843750e+01
3.044459915161132812e+01
3.044459915161132812e+01
3.083959960937500000e+01
3.083959960937500000e+01
3.162960052490234375e+01
3.202460098266601562e+01
3.281449890136718750e+01
3.368667221069335938e+01
3.518439865112304688e+01
3.645209884643554688e+01
3.834429931640625000e+01
4.000742721557617188e+01
4.167116165161132812e+01
4.426900100708007812e+01
4.632799530029296875e+01
4.830318069458007812e+01
5.019380187988281250e+01
5.185850906372070312e+01
5.335369873046875000e+01
5.462393569946289062e+01
5.541417694091796875e+01
5.659936141967773438e+01
5.730350112915039062e+01
5.769850158691406250e+01
5.818004989624023438e+01
5.848839950561523438e+01
5.888339996337890625e+01
5.888339996337890625e+01
5.919069671630859375e+01
5.888339996337890625e+01
5.809339904785156250e+01
5.809339904785156250e+01
5.730350112915039062e+01
5.642447662353515625e+01
5.563423919677734375e+01
5.444905090332031250e+01
5.326388931274414062e+01
5.198854827880859375e+01
5.089346313476562500e+01
4.931319808959960938e+01
4.812803649902343750e+01
4.694277191162109375e+01
4.545399856567382812e+01
4.466400146484375000e+01
4.378218078613281250e+01
4.238628387451171875e+01
4.189920043945312500e+01
4.071419906616210938e+01
4.022622680664062500e+01
3.952930068969726562e+01
3.913430023193359375e+01
3.834429931640625000e+01
3.794929885864257812e+01
3.755429840087890625e+01
3.715940093994140625e+01
3.676440048217773438e+01
3.636940002441406250e+01
3.597439956665039062e+01
3.557939910888671875e+01
3.518439865112304688e+01
3.478950119018554688e+01
3.439450073242187500e+01
3.429784011840820312e+01
3.399950027465820312e+01
3.360449981689453125e+01
3.320949935913085938e+01
3.320949935913085938e+01
3.320949935913085938e+01
3.320949935913085938e+01
3.320949935913085938e+01
3.281449890136718750e+01
3.281449890136718750e+01
3.311020660400390625e+01
3.320949935913085938e+01
3.320949935913085938e+01
3.370458221435546875e+01
3.488982009887695312e+01
3.557939910888671875e+01
3.647027206420898438e+01
3.805043792724609375e+01
3.923569869995117188e+01
4.081586456298828125e+01
4.239602661132812500e+01
4.397626495361328125e+01
4.555645370483398438e+01
4.713661575317382812e+01
4.821889877319335938e+01
4.911204528808593750e+01
4.990230560302734375e+01
5.029756927490234375e+01
5.058879852294921875e+01
5.069309616088867188e+01
5.098379898071289062e+01
5.098379898071289062e+01
5.098379898071289062e+01
5.058879852294921875e+01
5.048318481445312500e+01
5.019380187988281250e+01
4.940380096435546875e+01
4.900880050659179688e+01
4.821889877319335938e+01
4.771696853637695312e+01
4.692670440673828125e+01
4.574154281616210938e+01
4.466400146484375000e+01
4.337111663818359375e+01
4.229410171508789062e+01
4.110919952392578125e+01
3.992419815063476562e+01
3.913430023193359375e+01
3.845360183715820312e+01
3.783973693847656250e+01
3.715940093994140625e+01
3.647949218750000000e+01
3.597439956665039062e+01
3.557939910888671875e+01
3.546851730346679688e+01
3.478950119018554688e+01
3.467809295654296875e+01
3.399950027465820312e+01
3.399950027465820312e+01
3.360449981689453125e+01
3.320949935913085938e+01
3.281449890136718750e+01
3.241960144042968750e+01
3.241960144042968750e+01
3.202460098266601562e+01
3.202460098266601562e+01
3.191055679321289062e+01
3.162960052490234375e+01
3.162960052490234375e+01
3.162960052490234375e+01
3.151450347900390625e+01
3.123460006713867188e+01
3.123460006713867188e+01
3.123460006713867188e+01
3.083959960937500000e+01
3.044459915161132812e+01
3.044459915161132812e+01
3.032769012451171875e+01
3.044459915161132812e+01
3.004969978332519531e+01
3.004969978332519531e+01
3.004969978332519531e+01
2.977295684814453125e+01
3.004969978332519531e+01
3.083959960937500000e+01
3.123460006713867188e+01
3.162960052490234375e+01
3.281449890136718750e+01
3.411933517456054688e+01
3.530450057983398438e+01
3.688476181030273438e+01
3.846492767333984375e+01
4.044009017944335938e+01
4.202032470703125000e+01
4.399548721313476562e+01
4.636565017700195312e+01
4.834084320068359375e+01
4.952600860595703125e+01
5.110623931884765625e+01
5.256370162963867188e+01
5.308169555664062500e+01
5.387186050415039062e+01
5.426712417602539062e+01
5.480981445312500000e+01
5.453860092163085938e+01
5.493360137939453125e+01
5.480902099609375000e+01
5.453860092163085938e+01
5.414360046386718750e+01
5.374860000610351562e+01
5.335369873046875000e+01
5.256370162963867188e+01
5.177370071411132812e+01
5.098379898071289062e+01
5.006711578369140625e+01
4.900880050659179688e+01
4.782389831542968750e+01
4.690642547607421875e+01
4.572126388549804688e+01
4.426900100708007812e+01
4.295583343505859375e+01
4.177067184448242188e+01
4.031919860839843750e+01
3.940024566650390625e+01
3.873929977416992188e+01
3.781971740722656250e+01
3.715940093994140625e+01
3.663429260253906250e+01
3.597439956665039062e+01
3.557939910888671875e+01
3.492263793945312500e+01
3.399950027465820312e+01
3.347307586669921875e+01
3.281449890136718750e+01
3.241960144042968750e+01
3.202460098266601562e+01
3.162960052490234375e+01
3.123460006713867188e+01
3.083959960937500000e+01
3.070633125305175781e+01
3.044459915161132812e+01
3.004969978332519531e+01
2.965469932556152344e+01
2.965469932556152344e+01
2.939428520202636719e+01
2.925970077514648438e+01
2.925970077514648438e+01
2.925970077514648438e+01
2.951906013488769531e+01
2.965469932556152344e+01
3.004969978332519531e+01
3.083959960937500000e+01
3.137129211425781250e+01
3.229847717285156250e+01
3.399950027465820312e+01
3.532188415527343750e+01
3.676440048217773438e+01
3.848231124877929688e+01
4.045747375488281250e+01
4.243263626098632812e+01
4.401286315917968750e+01
4.559306335449218750e+01
4.756822586059570312e+01
4.875345611572265625e+01
4.940380096435546875e+01
4.993891525268554688e+01
5.072917938232421875e+01
5.084315490722656250e+01
5.058879852294921875e+01
5.098379898071289062e+01
5.058879852294921875e+01
5.058879852294921875e+01
5.019380187988281250e+01
5.005157470703125000e+01
4.940380096435546875e+01
4.861389923095703125e+01
4.821889877319335938e+01
4.703390121459960938e+01
4.610046005249023438e+01
4.491519546508789062e+01
4.347909927368164062e+01
4.229410171508789062e+01
4.135960769653320312e+01
4.031919860839843750e+01
3.938417816162109375e+01
3.834429931640625000e+01
3.740868759155273438e+01
3.661848831176757812e+01
3.597439956665039062e+01
3.543296051025390625e+01
3.478950119018554688e+01
3.439450073242187500e+01
3.399950027465820312e+01
3.320949935913085938e+01
3.306174468994140625e+01
3.241960144042968750e+01
3.241960144042968750e+01
3.202460098266601562e+01
3.162960052490234375e+01
3.123460006713867188e+01
3.083959960937500000e+01
3.069000244140625000e+01
3.044459915161132812e+01
3.029451370239257812e+01
3.004969978332519531e+01
3.004969978332519531e+01
2.989878463745117188e+01
2.989852142333984375e+01
2.980614280700683594e+01
2.925970077514648438e+01
2.965469932556152344e+01
3.004969978332519531e+01
3.004969978332519531e+01
3.083959960937500000e+01
3.138762283325195312e+01
3.241960144042968750e+01
3.320949935913085938e+01
3.470208740234375000e+01
3.652347564697265625e+01
3.794929885864257812e+01
3.983846664428710938e+01
4.165906524658203125e+01
4.378931808471679688e+01
4.560939407348632812e+01
4.742890167236328125e+01
4.876977920532226562e+01
5.034998321533203125e+01
5.114020538330078125e+01
5.216870117187500000e+01
5.295869827270507812e+01
5.295869827270507812e+01
5.319620132446289062e+01
5.335369873046875000e+01
5.335369873046875000e+01
5.295869827270507812e+01
5.280014801025390625e+01
5.256370162963867188e+01
5.177370071411132812e+01
5.098379898071289062e+01
5.019380187988281250e+01
4.940380096435546875e+01
4.821889877319335938e+01
4.703390121459960938e+01
4.584899902343750000e+01
4.450307464599609375e+01
4.331791305541992188e+01
4.189920043945312500e+01
4.055248641967773438e+01
3.913430023193359375e+01
3.794929885864257812e+01
3.715940093994140625e+01
3.636940002441406250e+01
3.557939910888671875e+01
3.502114868164062500e+01
3.439450073242187500e+01
3.423067855834960938e+01
3.344041442871093750e+01
3.304515075683593750e+01
3.281449890136718750e+01
3.208985137939453125e+01
3.185946273803710938e+01
3.146419906616210938e+01
3.106893539428710938e+01
3.083959960937500000e+01
3.067340850830078125e+01
3.044459915161132812e+01
3.004969978332519531e+01
3.004969978332519531e+01
3.004969978332519531e+01
2.965469932556152344e+01
2.965469932556152344e+01
2.942773437500000000e+01
2.948640251159667969e+01
2.903326225280761719e+01
2.886470031738281250e+01
2.869561195373535156e+01
2.846969985961914062e+01
2.846969985961914062e+01
2.846969985961914062e+01
2.846969985961914062e+01
2.846969985961914062e+01
2.846969985961914062e+01
2.807480049133300781e+01
2.807480049133300781e+01
2.790334129333496094e+01
2.767980003356933594e+01
2.767980003356933594e+01
2.750755119323730469e+01
2.728479957580566406e+01
2.688979911804199219e+01
2.706283950805664062e+01
2.728479957580566406e+01
2.745836639404296875e+01
2.824858474731445312e+01
2.903879165649414062e+01
2.982905578613281250e+01
3.101421928405761719e+01
3.281449890136718750e+01
3.496460342407226562e+01
3.676440048217773438e+01
3.948559951782226562e+01
4.168013763427734375e+01
4.444519805908203125e+01
4.699182510375976562e+01
4.918552780151367188e+01
5.133773422241210938e+01
5.353090667724609375e+01
5.471611785888671875e+01
5.590127944946289062e+01
5.708654403686523438e+01
5.809339904785156250e+01
5.848839950561523438e+01
5.888339996337890625e+01
5.927840042114257812e+01
5.927840042114257812e+01
5.949377822875976562e+01
5.927840042114257812e+01
5.909825134277343750e+01
5.848839950561523438e+01
5.809339904785156250e+01
5.730350112915039062e+01
5.611849975585937500e+01
5.514713287353515625e+01
5.374860000610351562e+01
5.256370162963867188e+01
5.098379898071289062e+01
4.961627960205078125e+01
4.803611755371093750e+01
4.685085296630859375e+01
4.527069091796875000e+01
4.408547210693359375e+01
4.268909835815429688e+01
4.150419998168945312e+01
4.071419906616210938e+01
4.010882568359375000e+01
3.913430023193359375e+01
3.855414581298828125e+01
3.794929885864257812e+01
3.715940093994140625e+01
3.676440048217773438e+01
3.636940002441406250e+01
3.557939910888671875e+01
3.539266586303710938e+01
3.478950119018554688e+01
3.478950119018554688e+01
3.420697402954101562e+01
3.381171035766601562e+01
3.381144714355468750e+01
3.360449981689453125e+01
3.360449981689453125e+01
3.360449981689453125e+01
3.399950027465820312e+01
3.399950027465820312e+01
3.439450073242187500e+01
3.518439865112304688e+01
3.537455749511718750e+01
3.597439956665039062e+01
3.715940093994140625e+01
3.794929885864257812e+01
3.893051147460937500e+01
3.972072601318359375e+01
4.130093765258789062e+01
4.248610305786132812e+01
4.387409973144531250e+01
4.466400146484375000e+01
4.545399856567382812e+01
4.624399948120117188e+01
4.624399948120117188e+01
4.584899902343750000e+01
4.565515518188476562e+01
4.505899810791015625e+01
4.446962738037109375e+01
4.347909927368164062e+01
4.308409881591796875e+01
4.189920043945312500e+01
4.091377258300781250e+01
3.992419815063476562e+01
3.873929977416992188e+01
3.735813522338867188e+01
3.636940002441406250e+01
3.538265609741210938e+01
3.419749450683593750e+01
3.320949935913085938e+01
3.241960144042968750e+01
3.182680320739746094e+01
3.123460006713867188e+01
3.103627777099609375e+01
3.083959960937500000e+01
3.044459915161132812e+01
3.064048767089843750e+01
3.044459915161132812e+01
3.004969978332519531e+01
2.965469932556152344e+01
2.965469932556152344e+01
2.925970077514648438e+01
2.945400619506835938e+01
2.925970077514648438e+01
2.905847930908203125e+01
2.886470031738281250e+01
2.867144775390625000e+01
2.846969985961914062e+01
2.846969985961914062e+01
2.846969985961914062e+01
2.846969985961914062e+01
2.846969985961914062e+01
2.807480049133300781e+01
2.807480049133300781e+01
2.807480049133300781e+01
2.767980003356933594e+01
2.728479957580566406e+01
2.728479957580566406e+01
2.709470748901367188e+01
2.707962989807128906e+01
2.688979911804199219e+01
2.728479957580566406e+01
2.728479957580566406e+01
2.767980003356933594e+01
2.846969985961914062e+01
2.965469932556152344e+01
3.044459915161132812e+01
3.183687782287597656e+01
3.341704177856445312e+01
3.539220428466796875e+01
3.757548522949218750e+01
3.973757934570312500e+01
4.192133712768554688e+01
4.408290481567382812e+01
4.587224197387695312e+01
4.803328323364257812e+01
4.961344909667968750e+01
5.098379898071289062e+01
5.198387527465820312e+01
5.295869827270507812e+01
5.335369873046875000e+01
5.374860000610351562e+01
5.374860000610351562e+01
5.396009063720703125e+01
5.374860000610351562e+01
5.353663635253906250e+01
5.335369873046875000e+01
5.274615478515625000e+01
5.195589065551757812e+01
5.116567993164062500e+01
5.019380187988281250e+01
4.919020080566406250e+01
4.800503921508789062e+01
4.663890075683593750e+01
4.563460922241210938e+01
4.405440139770507812e+01
4.247418594360351562e+01
4.110919952392578125e+01
4.013964080810546875e+01
3.873929977416992188e+01
3.755429840087890625e+01
3.694316864013671875e+01
3.615290451049804688e+01
3.557939910888671875e+01
3.478950119018554688e+01
3.439450073242187500e+01
3.378195190429687500e+01
3.320949935913085938e+01
3.259647750854492188e+01
3.180626106262207031e+01
3.141099739074707031e+01
3.083959960937500000e+01
3.062047004699707031e+01
3.004969978332519531e+01
2.983004379272460938e+01
2.947961997985839844e+01
2.925970077514648438e+01
2.886470031738281250e+01
2.886470031738281250e+01
2.846969985961914062e+01
2.846969985961914062e+01
2.807480049133300781e+01
2.785303688049316406e+01
2.767980003356933594e+01
2.728479957580566406e+01
2.728479957580566406e+01
2.671761703491210938e+01
2.632287979125976562e+01
2.609980010986328125e+01
2.592845153808593750e+01
2.570490074157714844e+01
2.570490074157714844e+01
2.570490074157714844e+01
2.530990028381347656e+01
2.530990028381347656e+01
2.514008712768554688e+01
2.491489982604980469e+01
2.491489982604980469e+01
2.491489982604980469e+01
2.491489982604980469e+01
2.451989936828613281e+01
2.451989936828613281e+01
2.412490081787109375e+01
2.412490081787109375e+01
2.412490081787109375e+01
2.412490081787109375e+01
2.372990036010742188e+01
2.372990036010742188e+01
2.372990036010742188e+01
2.372990036010742188e+01
2.372990036010742188e+01
2.372990036010742188e+01
2.372990036010742188e+01
2.372990036010742188e+01
2.372990036010742188e+01
2.372990036010742188e+01
2.372990036010742188e+01
2.372990036010742188e+01
2.372990036010742188e+01
2.372990036010742188e+01
2.372990036010742188e+01
2.372990036010742188e+01
2.372990036010742188e+01
2.372990036010742188e+01
2.412490081787109375e+01
2.412490081787109375e+01
2.412490081787109375e+01
2.435851478576660156e+01
2.451989936828613281e+01
2.451989936828613281e+01
2.451989936828613281e+01
2.468023109436035156e+01
2.491489982604980469e+01
2.491489982604980469e+01
2.530990028381347656e+01
2.554562187194824219e+01
2.570490074157714844e+01
2.586361122131347656e+01
2.609980010986328125e+01
2.609980010986328125e+01
2.609980010986328125e+01
2.649480056762695312e+01
2.688979911804199219e+01
2.688979911804199219e+01
2.712789344787597656e+01
2.728479957580566406e+01
2.728479957580566406e+01
2.752368354797363281e+01
2.767980003356933594e+01
2.807480049133300781e+01
2.831441307067871094e+01
2.870963668823242188e+01
2.925970077514648438e+01
2.965469932556152344e+01
3.132105445861816406e+01
3.266053009033203125e+01
3.360449981689453125e+01
3.582091522216796875e+01
3.794929885864257812e+01
4.016624450683593750e+01
4.293140792846679688e+01
4.569657135009765625e+01
4.830956649780273438e+01
5.098379898071289062e+01
5.280706024169921875e+01
5.517722320556640625e+01
5.715238571166992188e+01
5.848839950561523438e+01
5.952281570434570312e+01
6.085829925537109375e+01
6.164830017089843750e+01
6.204330062866210938e+01
6.243830108642578125e+01
6.283319854736328125e+01
6.283319854736328125e+01
6.283319854736328125e+01
6.283319854736328125e+01
6.219151687622070312e+01
6.164830017089843750e+01
6.061098861694335938e+01
5.982082366943359375e+01
5.863556289672851562e+01
5.690850067138671875e+01
5.547519683837890625e+01
5.389497375488281250e+01
5.231480789184570312e+01
5.073464584350585938e+01
4.940380096435546875e+01
4.796921920776367188e+01
4.638901901245117188e+01
4.520379257202148438e+01
4.401859283447265625e+01
4.283336639404296875e+01
4.164820098876953125e+01
4.085793685913085938e+01
3.992419815063476562e+01
3.927751159667968750e+01
3.873929977416992188e+01
3.809198379516601562e+01
3.794929885864257812e+01
3.715940093994140625e+01
3.636940002441406250e+01
3.572103118896484375e+01
3.518439865112304688e+01
3.453560256958007812e+01
3.414034271240234375e+01
3.360449981689453125e+01
3.334981536865234375e+01
3.281449890136718750e+01
3.241960144042968750e+01
3.241960144042968750e+01
3.202460098266601562e+01
3.162960052490234375e+01
3.097833442687988281e+01
3.097807121276855469e+01
3.083959960937500000e+01
3.058254432678222656e+01
3.044459915161132812e+01
3.004969978332519531e+01
3.004969978332519531e+01
2.965469932556152344e+01
2.925970077514648438e+01
2.925970077514648438e+01
2.886470031738281250e+01
2.860553741455078125e+01
2.846969985961914062e+01
2.821007537841796875e+01
2.793975257873535156e+01
2.767980003356933594e+01
2.741931915283203125e+01
2.728479957580566406e+01
2.728479957580566406e+01
2.702352905273437500e+01
2.688979911804199219e+01
2.688979911804199219e+01
2.688979911804199219e+01
2.649480056762695312e+01
2.649480056762695312e+01
2.623194885253906250e+01
2.623168563842773438e+01
2.609980010986328125e+01
2.583622550964355469e+01
2.609980010986328125e+01
2.570490074157714844e+01
2.570490074157714844e+01
2.570490074157714844e+01
2.570490074157714844e+01
2.570490074157714844e+01
2.570490074157714844e+01
2.570490074157714844e+01
2.570490074157714844e+01
2.570490074157714844e+01
2.570490074157714844e+01
2.570490074157714844e+01
2.570490074157714844e+01
2.609980010986328125e+01
2.609980010986328125e+01
2.609980010986328125e+01
2.609980010986328125e+01
2.609980010986328125e+01
2.609980010986328125e+01
2.649480056762695312e+01
2.649480056762695312e+01
2.649480056762695312e+01
2.649480056762695312e+01
