2.846969985961914062e+01
2.846969985961914062e+01
2.846969985961914062e+01
2.846969985961914062e+01
2.846969985961914062e+01
2.846969985961914062e+01
2.846969985961914062e+01
2.846969985961914062e+01
2.846969985961914062e+01
2.846969985961914062e+01
2.847233390808105469e+01
2.846969985961914062e+01
2.886153984069824219e+01
2.846969985961914062e+01
2.847338676452636719e+01
2.886470031738281250e+01
2.886470031738281250e+01
2.925970077514648438e+01
2.965944099426269531e+01
3.083959960937500000e+01
3.123460006713867188e+01
3.241960144042968750e+01
3.400529479980468750e+01
3.519045639038085938e+01
3.717203903198242188e+01
3.993078613281250000e+01
4.230094909667968750e+01
4.467822265625000000e+01
4.743627548217773438e+01
4.980643844604492188e+01
5.295869827270507812e+01
5.493360137939453125e+01
5.651350021362304688e+01
5.810209274291992188e+01
5.928735351562500000e+01
6.006840133666992188e+01
6.047278213500976562e+01
6.085829925537109375e+01
6.085829925537109375e+01
6.046329879760742188e+01
6.045276641845703125e+01
5.927840042114257812e+01
5.887233734130859375e+01
5.809339904785156250e+01
5.730350112915039062e+01
5.648979568481445312e+01
5.531648635864257812e+01
5.414360046386718750e+01
5.295869827270507812e+01
5.176079559326171875e+01
5.019380187988281250e+01
4.937693786621093750e+01
4.741520309448242188e+01
4.583504104614257812e+01
4.464977645874023438e+01
4.346461486816406250e+01
4.229410171508789062e+01
4.109418869018554688e+01
4.030392456054687500e+01
3.949822235107421875e+01
3.834429931640625000e+01
3.755429840087890625e+01
3.715940093994140625e+01
3.676440048217773438e+01
3.676440048217773438e+01
3.635227966308593750e+01
3.595701599121093750e+01
3.557939910888671875e+01
3.518439865112304688e+01
3.516623306274414062e+01
3.477106475830078125e+01
3.437580108642578125e+01
3.399950027465820312e+01
3.360449981689453125e+01
3.360449981689453125e+01
3.318974685668945312e+01
3.281449890136718750e+01
3.241960144042968750e+01
3.239905548095703125e+01
3.202460098266601562e+01
3.162960052490234375e+01
3.162960052490234375e+01
3.123460006713867188e+01
3.123460006713867188e+01
3.083959960937500000e+01
3.044459915161132812e+01
3.081694984436035156e+01
3.007260894775390625e+01
3.004969978332519531e+01
3.004969978332519531e+01
3.002599525451660156e+01
2.965469932556152344e+01
2.925970077514648438e+01
2.925970077514648438e+01
2.928445816040039062e+01
2.925970077514648438e+01
2.925970077514648438e+01
2.925970077514648438e+01
2.925970077514648438e+01
2.925970077514648438e+01
2.886470031738281250e+01
2.886470031738281250e+01
2.886470031738281250e+01
2.886470031738281250e+01
2.886470031738281250e+01
2.883704566955566406e+01
2.846969985961914062e+01
2.846969985961914062e+01
2.846969985961914062e+01
2.846969985961914062e+01
2.846969985961914062e+01
2.846969985961914062e+01
2.846969985961914062e+01
2.846969985961914062e+01
2.846969985961914062e+01
2.883441162109375000e+01
2.846969985961914062e+01
2.846969985961914062e+01
2.846969985961914062e+01
2.850104141235351562e+01
2.846969985961914062e+01
2.843783950805664062e+01
2.846969985961914062e+01
2.846969985961914062e+01
2.846969985961914062e+01
2.886470031738281250e+01
2.846969985961914062e+01
2.886470031738281250e+01
2.886470031738281250e+01
2.886470031738281250e+01
2.886470031738281250e+01
2.886470031738281250e+01
2.886470031738281250e+01
2.886470031738281250e+01
2.886470031738281250e+01
2.925970077514648438e+01
2.965469932556152344e+01
3.008577346801757812e+01
3.083959960937500000e+01
3.166621017456054688e+01
3.241960144042968750e+01
3.399950027465820312e+01
3.525919723510742188e+01
3.719705200195312500e+01
3.921014404296875000e+01
4.154238891601562500e+01
4.430745315551757812e+01
4.671633148193359375e+01
4.900880050659179688e+01
5.145718765258789062e+01
5.378810501098632812e+01
5.576327133178710938e+01
5.734353256225585938e+01
5.892369842529296875e+01
6.050386047363281250e+01
6.085829925537109375e+01
6.125329971313476562e+01
6.164830017089843750e+01
6.164830017089843750e+01
6.125329971313476562e+01
6.085829925537109375e+01
6.042090606689453125e+01
5.967340087890625000e+01
5.888339996337890625e+01
5.844520568847656250e+01
5.726004409790039062e+01
5.607477951049804688e+01
5.453860092163085938e+01
5.335369873046875000e+01
5.212418746948242188e+01
5.058879852294921875e+01
4.935876083374023438e+01
4.742890167236328125e+01
4.619843673706054688e+01
4.466400146484375000e+01
4.347909927368164062e+01
4.229410171508789062e+01
4.106258392333984375e+01
3.992419815063476562e+01
3.873929977416992188e+01
3.829689025878906250e+01
3.755429840087890625e+01
3.715940093994140625e+01
3.676440048217773438e+01
3.602286148071289062e+01
3.597439956665039062e+01
3.557939910888671875e+01
3.518439865112304688e+01
3.478950119018554688e+01
3.473972320556640625e+01
3.439450073242187500e+01
3.399950027465820312e+01
3.360449981689453125e+01
3.320949935913085938e+01
3.320949935913085938e+01
3.281449890136718750e+01
3.276288986206054688e+01
3.241960144042968750e+01
3.202460098266601562e+01
3.162960052490234375e+01
3.157692527770996094e+01
3.123460006713867188e+01
3.118139839172363281e+01
3.083959960937500000e+01
3.083959960937500000e+01
3.044459915161132812e+01
3.044459915161132812e+01
3.004969978332519531e+01
3.004969978332519531e+01
3.004969978332519531e+01
2.965469932556152344e+01
2.965469932556152344e+01
2.925970077514648438e+01
2.925970077514648438e+01
2.925970077514648438e+01
2.925970077514648438e+01
2.920281028747558594e+01
2.925970077514648438e+01
2.892211532592773438e+01
2.925970077514648438e+01
2.892264366149902344e+01
2.886470031738281250e+01
2.886470031738281250e+01
2.886470031738281250e+01
2.886470031738281250e+01
2.886470031738281250e+01
2.886470031738281250e+01
2.886470031738281250e+01
2.886470031738281250e+01
2.886470031738281250e+01
2.886470031738281250e+01
2.886470031738281250e+01
2.886470031738281250e+01
2.886470031738281250e+01
2.886470031738281250e+01
2.886470031738281250e+01
2.886470031738281250e+01
2.886470031738281250e+01
2.886470031738281250e+01
2.886470031738281250e+01
2.886470031738281250e+01
2.886470031738281250e+01
2.925970077514648438e+01
2.925970077514648438e+01
2.925970077514648438e+01
2.932422828674316406e+01
2.932449150085449219e+01
2.965469932556152344e+01
2.965469932556152344e+01
2.965469932556152344e+01
2.965469932556152344e+01
2.965469932556152344e+01
2.972107124328613281e+01
2.972133445739746094e+01
3.004969978332519531e+01
3.044459915161132812e+01
3.083959960937500000e+01
3.123460006713867188e+01
3.202460098266601562e+01
3.288271331787109375e+01
3.399950027465820312e+01
3.525314331054687500e+01
3.722838592529296875e+01
3.920356750488281250e+01
4.124826431274414062e+01
4.361867141723632812e+01
4.631404113769531250e+01
4.875452423095703125e+01
5.137870025634765625e+01
5.381945037841796875e+01
5.618961334228515625e+01
5.776985549926757812e+01
5.895503997802734375e+01
6.046329879760742188e+01
6.164830017089843750e+01
6.204330062866210938e+01
6.204330062866210938e+01
6.283319854736328125e+01
6.243830108642578125e+01
6.236481857299804688e+01
6.164830017089843750e+01
6.093230819702148438e+01
6.038904571533203125e+01
5.927840042114257812e+01
5.848839950561523438e+01
5.730350112915039062e+01
5.611849975585937500e+01
5.485800933837890625e+01
5.367276763916015625e+01
5.248758316040039062e+01
5.130234146118164062e+01
4.972215652465820312e+01
4.821889877319335938e+01
4.663890075683593750e+01
4.537656784057617188e+01
4.419132232666015625e+01
4.261114120483398438e+01
4.142597579956054688e+01
4.063571548461914062e+01
3.952930068969726562e+01
3.866028594970703125e+01
3.794929885864257812e+01
3.763383865356445312e+01
3.747451782226562500e+01
3.715940093994140625e+01
3.636940002441406250e+01
3.636940002441406250e+01
3.597439956665039062e+01
3.557939910888671875e+01
3.549801635742187500e+01
3.510277557373046875e+01
3.439450073242187500e+01
3.408167266845703125e+01
3.399950027465820312e+01
3.360449981689453125e+01
3.320949935913085938e+01
3.281449890136718750e+01
3.241960144042968750e+01
3.233584594726562500e+01
3.202460098266601562e+01
3.194031906127929688e+01
3.162960052490234375e+01
3.123460006713867188e+01
3.114952850341796875e+01
3.083959960937500000e+01
3.075400161743164062e+01
3.053046035766601562e+01
3.044459915161132812e+01
3.004969978332519531e+01
3.004969978332519531e+01
3.004969978332519531e+01
2.965469932556152344e+01
2.934714126586914062e+01
2.925970077514648438e+01
2.925970077514648438e+01
2.925970077514648438e+01
2.895319557189941406e+01
2.925970077514648438e+01
2.925970077514648438e+01
2.895398521423339844e+01
2.886470031738281250e+01
2.886470031738281250e+01
2.886470031738281250e+01
2.886470031738281250e+01
2.886470031738281250e+01
2.886470031738281250e+01
2.886470031738281250e+01
2.886470031738281250e+01
2.886470031738281250e+01
2.886470031738281250e+01
2.886470031738281250e+01
2.886470031738281250e+01
2.886470031738281250e+01
2.886470031738281250e+01
2.886470031738281250e+01
2.886470031738281250e+01
2.877093696594238281e+01
2.886470031738281250e+01
2.925970077514648438e+01
2.895925331115722656e+01
2.925970077514648438e+01
2.925970077514648438e+01
2.925970077514648438e+01
2.925970077514648438e+01
2.925970077514648438e+01
2.965469932556152344e+01
2.935609626770019531e+01
2.965469932556152344e+01
2.965469932556152344e+01
2.965469932556152344e+01
2.965469932556152344e+01
2.965469932556152344e+01
3.004969978332519531e+01
3.004969978332519531e+01
3.054310226440429688e+01
3.123460006713867188e+01
3.202460098266601562e+01
3.281449890136718750e+01
3.439450073242187500e+01
3.567921829223632812e+01
3.725945663452148438e+01
3.933496856689453125e+01
4.160480880737304688e+01
4.397494888305664062e+01
4.644624710083007812e+01
4.881667327880859375e+01
5.108543777465820312e+01
5.345560073852539062e+01
5.543076324462890625e+01
5.701095199584960938e+01
5.898611831665039062e+01
6.006840133666992188e+01
6.046329879760742188e+01
6.096180725097656250e+01
6.164830017089843750e+01
6.125329971313476562e+01
6.085829925537109375e+01
6.075373840332031250e+01
6.006840133666992188e+01
5.967340087890625000e+01
5.917304992675781250e+01
5.838278579711914062e+01
5.719762420654296875e+01
5.611849975585937500e+01
5.493360137939453125e+01
5.374860000610351562e+01
5.256370162963867188e+01
5.177370071411132812e+01
5.008634185791015625e+01
4.861389923095703125e+01
4.721292877197265625e+01
4.574075317382812500e+01
4.455548858642578125e+01
4.308409881591796875e+01
4.189920043945312500e+01
4.099989700317382812e+01
4.020963668823242188e+01
3.862947082519531250e+01
3.823420715332031250e+01
3.755429840087890625e+01
3.704878234863281250e+01
3.665351867675781250e+01
3.597439956665039062e+01
3.597439956665039062e+01
3.557939910888671875e+01
3.518439865112304688e+01
3.478950119018554688e+01
3.439450073242187500e+01
3.399950027465820312e+01
3.399950027465820312e+01
3.360449981689453125e+01
3.320949935913085938e+01
3.320949935913085938e+01
3.281449890136718750e+01
3.241960144042968750e+01
3.202460098266601562e+01
3.162960052490234375e+01
3.123460006713867188e+01
3.095495986938476562e+01
3.083959960937500000e+01
3.044459915161132812e+01
3.044459915161132812e+01
3.004969978332519531e+01
3.004969978332519531e+01
3.004969978332519531e+01
2.977190208435058594e+01
2.965469932556152344e+01
2.965469932556152344e+01
2.965469932556152344e+01
2.925970077514648438e+01
2.886470031738281250e+01
2.886470031738281250e+01
2.886470031738281250e+01
2.886470031738281250e+01
2.886470031738281250e+01
2.874486351013183594e+01
2.886470031738281250e+01
2.846969985961914062e+01
2.846969985961914062e+01
2.846969985961914062e+01
2.874354553222656250e+01
2.846969985961914062e+01
2.846969985961914062e+01
2.807480049133300781e+01
2.807480049133300781e+01
2.795232963562011719e+01
2.807480049133300781e+01
2.807480049133300781e+01
2.807480049133300781e+01
2.807480049133300781e+01
2.807480049133300781e+01
2.807480049133300781e+01
2.780411338806152344e+01
2.807480049133300781e+01
2.846969985961914062e+01
2.846969985961914062e+01
2.820013618469238281e+01
2.846969985961914062e+01
2.846969985961914062e+01
2.846969985961914062e+01
2.846969985961914062e+01
2.846969985961914062e+01
2.886470031738281250e+01
2.886470031738281250e+01
2.886470031738281250e+01
2.886470031738281250e+01
2.886470031738281250e+01
2.886470031738281250e+01
2.913117218017578125e+01
2.925970077514648438e+01
2.913064575195312500e+01
2.925970077514648438e+01
2.938928222656250000e+01
2.965469932556152344e+01
2.978480911254882812e+01
3.044459915161132812e+01
3.123460006713867188e+01
3.176049804687500000e+01
3.320949935913085938e+01
3.492089080810546875e+01
3.636940002441406250e+01
3.808125305175781250e+01
4.084641647338867188e+01
4.321657943725585938e+01
4.571948242187500000e+01
4.795690536499023438e+01
5.032706832885742188e+01
5.243576431274414062e+01
5.427739715576171875e+01
5.585755920410156250e+01
5.730350112915039062e+01
5.848839950561523438e+01
5.888339996337890625e+01
5.927840042114257812e+01
5.953802490234375000e+01
5.927840042114257812e+01
5.874749755859375000e+01
5.848839950561523438e+01
5.769850158691406250e+01
5.716680908203125000e+01
5.651350021362304688e+01
5.558631515502929688e+01
5.453860092163085938e+01
5.335369873046875000e+01
5.242568969726562500e+01
5.124046325683593750e+01
4.979880142211914062e+01
4.887003707885742188e+01
4.768483734130859375e+01
4.610467529296875000e+01
4.466400146484375000e+01
4.347909927368164062e+01
4.215401840209960938e+01
4.110919952392578125e+01
3.992419815063476562e+01
3.899339294433593750e+01
3.794929885864257812e+01
3.741290283203125000e+01
3.701770401000976562e+01
3.662244033813476562e+01
3.597439956665039062e+01
3.583191299438476562e+01
3.557939910888671875e+01
3.518439865112304688e+01
3.478950119018554688e+01
3.478950119018554688e+01
3.439450073242187500e+01
3.399950027465820312e+01
3.385516738891601562e+01
3.360449981689453125e+01
3.320949935913085938e+01
3.281449890136718750e+01
3.241960144042968750e+01
3.202460098266601562e+01
3.177551078796386719e+01
3.162960052490234375e+01
3.162960052490234375e+01
3.123460006713867188e+01
3.083959960937500000e+01
3.083959960937500000e+01
3.044459915161132812e+01
3.044459915161132812e+01
3.019768142700195312e+01
3.004969978332519531e+01
2.980324554443359375e+01
2.990089225769042969e+01
2.950562858581542969e+01
2.965469932556152344e+01
2.950510215759277344e+01
2.925970077514648438e+01
2.925970077514648438e+01
2.925970077514648438e+01
2.886470031738281250e+01
2.886470031738281250e+01
2.886470031738281250e+01
2.886470031738281250e+01
2.871299552917480469e+01
2.886470031738281250e+01
2.886470031738281250e+01
2.886470031738281250e+01
2.886470031738281250e+01
2.886470031738281250e+01
2.886470031738281250e+01
2.831619071960449219e+01
2.846969985961914062e+01
2.846969985961914062e+01
2.886470031738281250e+01
2.886470031738281250e+01
2.870983505249023438e+01
2.886470031738281250e+01
2.886470031738281250e+01
2.886470031738281250e+01
2.886470031738281250e+01
2.886470031738281250e+01
2.902114677429199219e+01
2.886470031738281250e+01
2.886470031738281250e+01
2.886470031738281250e+01
2.886470031738281250e+01
2.886470031738281250e+01
2.886470031738281250e+01
2.886470031738281250e+01
2.925970077514648438e+01
2.925970077514648438e+01
2.925970077514648438e+01
2.925970077514648438e+01
2.925970077514648438e+01
2.925970077514648438e+01
2.925970077514648438e+01
2.925970077514648438e+01
2.925970077514648438e+01
2.949377632141113281e+01
2.925970077514648438e+01
2.965469932556152344e+01
3.004969978332519531e+01
3.044459915161132812e+01
3.083959960937500000e+01
3.139710426330566406e+01
3.281449890136718750e+01
3.416252899169921875e+01
3.557939910888671875e+01
3.755429840087890625e+01
3.946189880371093750e+01
4.166828536987304688e+01
4.403840637207031250e+01
4.640856933593750000e+01
4.877873229980468750e+01
5.114889526367187500e+01
5.295869827270507812e+01
5.470426559448242188e+01
5.628442764282226562e+01
5.730350112915039062e+01
5.825985336303710938e+01
5.888339996337890625e+01
5.967340087890625000e+01
5.927840042114257812e+01
5.927840042114257812e+01
5.888339996337890625e+01
5.848839950561523438e+01
5.769850158691406250e+01
5.713493728637695312e+01
5.634467697143554688e+01
5.532860183715820312e+01
5.470795059204101562e+01
5.374860000610351562e+01
5.239382171630859375e+01
5.137870025634765625e+01
5.019380187988281250e+01
4.883817291259765625e+01
4.765296936035156250e+01
4.607280349731445312e+01
4.466400146484375000e+01
4.330737686157226562e+01
4.212215805053710938e+01
4.110919952392578125e+01
3.975173187255859375e+01
3.873929977416992188e+01
3.777626037597656250e+01
3.755429840087890625e+01
3.715940093994140625e+01
3.676440048217773438e+01
3.676440048217773438e+01
3.597439956665039062e+01
3.575402069091796875e+01
3.540451812744140625e+01
3.518439865112304688e+01
3.478950119018554688e+01
3.478950119018554688e+01
3.439450073242187500e+01
3.399950027465820312e+01
3.360449981689453125e+01
3.360449981689453125e+01
3.320949935913085938e+01
3.281449890136718750e+01
3.281449890136718750e+01
3.241960144042968750e+01
3.241960144042968750e+01
3.202460098266601562e+01
3.162960052490234375e+01
3.162960052490234375e+01
3.145050430297851562e+01
3.123460006713867188e+01
3.101922416687011719e+01
3.083959960937500000e+01
3.083959960937500000e+01
3.044459915161132812e+01
3.026396942138671875e+01
3.004969978332519531e+01
2.986849594116210938e+01
3.004969978332519531e+01
2.965469932556152344e+01
2.944169425964355469e+01
2.925970077514648438e+01
2.925970077514648438e+01
2.925970077514648438e+01
2.925970077514648438e+01
2.925970077514648438e+01
2.925970077514648438e+01
2.925970077514648438e+01
2.904880142211914062e+01
2.886470031738281250e+01
2.886470031738281250e+01
2.886470031738281250e+01
2.886470031738281250e+01
2.886470031738281250e+01
2.886470031738281250e+01
2.886470031738281250e+01
2.886470031738281250e+01
2.886470031738281250e+01
2.905143356323242188e+01
2.886470031738281250e+01
2.886470031738281250e+01
2.886470031738281250e+01
2.886470031738281250e+01
2.886470031738281250e+01
2.886470031738281250e+01
2.886470031738281250e+01
2.886470031738281250e+01
2.886470031738281250e+01
2.886470031738281250e+01
2.886470031738281250e+01
2.886470031738281250e+01
2.925970077514648438e+01
2.905512237548828125e+01
2.925970077514648438e+01
2.925970077514648438e+01
2.925970077514648438e+01
2.925970077514648438e+01
2.925970077514648438e+01
2.945170211791992188e+01
2.965469932556152344e+01
2.984722900390625000e+01
3.025185585021972656e+01
3.063765525817871094e+01
3.103291893005371094e+01
3.182318305969238281e+01
3.261339569091796875e+01
3.320949935913085938e+01
3.498382186889648438e+01
3.695903396606445312e+01
3.873409652709960938e+01
4.110452651977539062e+01
4.347495269775390625e+01
4.624032974243164062e+01
4.880980300903320312e+01
5.078501510620117188e+01
5.315517807006835938e+01
5.513034439086914062e+01
5.690850067138671875e+01
5.829066848754882812e+01
5.967340087890625000e+01
6.046329879760742188e+01
6.066135787963867188e+01
6.085829925537109375e+01
6.085829925537109375e+01
6.085829925537109375e+01
6.026423645019531250e+01
5.986902236938476562e+01
5.907875823974609375e+01
5.848839950561523438e+01
5.769850158691406250e+01
5.670806884765625000e+01
5.552285766601562500e+01
5.433764266967773438e+01
5.295869827270507812e+01
5.177370071411132812e+01
5.019380187988281250e+01
4.880683898925781250e+01
4.762162780761718750e+01
4.623387527465820312e+01
4.485620117187500000e+01
4.327603530883789062e+01
4.229410171508789062e+01
4.110919952392578125e+01
3.992419815063476562e+01
3.893018341064453125e+01
3.834429931640625000e+01
3.755429840087890625e+01
3.695449066162109375e+01
3.655923080444335938e+01
3.617983245849609375e+01
3.557939910888671875e+01
3.518439865112304688e+01
3.497822952270507812e+01
3.478950119018554688e+01
3.439450073242187500e+01
3.399950027465820312e+01
3.379222106933593750e+01
3.360449981689453125e+01
3.339669418334960938e+01
3.281449890136718750e+01
3.241960144042968750e+01
3.241960144042968750e+01
3.202460098266601562e+01
3.162960052490234375e+01
3.181521415710449219e+01
3.123460006713867188e+01
3.123460006713867188e+01
3.104977416992187500e+01
3.123460006713867188e+01
3.083959960937500000e+01
3.062863540649414062e+01
3.044459915161132812e+01
3.026113891601562500e+01
3.004969978332519531e+01
2.983768081665039062e+01
2.965469932556152344e+01
2.965469932556152344e+01
2.965469932556152344e+01
2.944162750244140625e+01
2.925970077514648438e+01
2.925970077514648438e+01
2.925970077514648438e+01
2.925970077514648438e+01
2.925970077514648438e+01
2.904504776000976562e+01
2.907961654663085938e+01
2.886470031738281250e+01
2.886470031738281250e+01
2.886470031738281250e+01
2.886470031738281250e+01
2.886470031738281250e+01
2.886470031738281250e+01
2.886470031738281250e+01
2.886470031738281250e+01
2.886470031738281250e+01
2.886470031738281250e+01
2.886470031738281250e+01
2.886470031738281250e+01
2.886470031738281250e+01
2.886470031738281250e+01
2.886470031738281250e+01
2.886470031738281250e+01
2.886470031738281250e+01
2.886470031738281250e+01
2.903977966308593750e+01
2.903951644897460938e+01
2.925970077514648438e+01
2.925970077514648438e+01
2.925970077514648438e+01
2.925970077514648438e+01
2.925970077514648438e+01
2.925970077514648438e+01
2.925970077514648438e+01
2.925970077514648438e+01
2.948225402832031250e+01
2.925970077514648438e+01
2.965469932556152344e+01
2.965469932556152344e+01
3.004969978332519531e+01
3.027351379394531250e+01
3.083959960937500000e+01
3.145899772644042969e+01
3.202460098266601562e+01
3.303942489624023438e+01
3.501462936401367188e+01
3.619985198974609375e+01
3.800572967529296875e+01
4.054517745971679688e+01
4.314158248901367188e+01
4.528550338745117188e+01
4.765566635131835938e+01
5.064786148071289062e+01
5.279099273681640625e+01
5.555609893798828125e+01
5.674132156372070312e+01
5.865531539916992188e+01
6.006840133666992188e+01
6.085829925537109375e+01
6.148217391967773438e+01
6.204330062866210938e+01
6.220889663696289062e+01
6.204330062866210938e+01
6.164830017089843750e+01
6.141810989379882812e+01
6.062784576416015625e+01
5.983768081665039062e+01
5.927840042114257812e+01
5.825715637207031250e+01
5.730350112915039062e+01
5.611849975585937500e+01
5.470156478881835938e+01
5.351636123657226562e+01
5.216870117187500000e+01
5.098379898071289062e+01
4.956571197509765625e+01
4.821889877319335938e+01
4.680028533935546875e+01
4.561511993408203125e+01
4.403491592407226562e+01
4.245469284057617188e+01
4.166453170776367188e+01
4.047926712036132812e+01
3.968906402587890625e+01
3.873929977416992188e+01
3.794929885864257812e+01
3.755429840087890625e+01
3.715940093994140625e+01
3.676440048217773438e+01
3.636940002441406250e+01
3.597439956665039062e+01
3.557939910888671875e+01
3.518439865112304688e+01
3.502727127075195312e+01
3.478950119018554688e+01
3.439450073242187500e+01
3.439450073242187500e+01
3.399950027465820312e+01
3.360449981689453125e+01
3.336508941650390625e+01
3.281449890136718750e+01
3.265947723388671875e+01
3.241960144042968750e+01
3.217913818359375000e+01
3.202460098266601562e+01
3.162960052490234375e+01
3.123460006713867188e+01
3.123460006713867188e+01
3.083959960937500000e+01
3.108164405822753906e+01
3.083959960937500000e+01
3.068717002868652344e+01
3.044459915161132812e+01
3.004969978332519531e+01
3.004969978332519531e+01
2.965469932556152344e+01
2.989858818054199219e+01
2.965469932556152344e+01
2.965469932556152344e+01
2.950437736511230469e+01
2.965469932556152344e+01
2.950490379333496094e+01
2.940923309326171875e+01
2.925970077514648438e+01
2.925970077514648438e+01
2.925970077514648438e+01
2.925970077514648438e+01
2.925970077514648438e+01
2.901265144348144531e+01
2.925970077514648438e+01
2.886470031738281250e+01
2.886470031738281250e+01
2.886470031738281250e+01
2.886470031738281250e+01
2.886470031738281250e+01
2.886470031738281250e+01
2.925970077514648438e+01
2.925970077514648438e+01
2.925970077514648438e+01
2.925970077514648438e+01
2.925970077514648438e+01
2.925970077514648438e+01
2.925970077514648438e+01
2.925970077514648438e+01
2.925970077514648438e+01
2.925970077514648438e+01
2.925970077514648438e+01
2.925970077514648438e+01
2.965469932556152344e+01
2.940212059020996094e+01
2.965469932556152344e+01
2.965469932556152344e+01
2.965469932556152344e+01
2.965469932556152344e+01
2.965469932556152344e+01
2.990885925292968750e+01
3.004969978332519531e+01
3.055900764465332031e+01
3.123460006713867188e+01
3.188481330871582031e+01
3.255908966064453125e+01
3.399950027465820312e+01
3.569640350341796875e+01
3.702066421508789062e+01
3.925235748291015625e+01
4.136599349975585938e+01
4.387409973144531250e+01
4.675857543945312500e+01
4.926638412475585938e+01
5.163654708862304688e+01
5.400671005249023438e+01
5.637687301635742188e+01
5.795706939697265625e+01
5.953730010986328125e+01
6.072246170043945312e+01
6.125329971313476562e+01
6.190798950195312500e+01
6.217834854125976562e+01
6.204330062866210938e+01
6.178282165527343750e+01
6.164830017089843750e+01
6.125329971313476562e+01
6.046329879760742188e+01
5.967340087890625000e+01
5.901660156250000000e+01
5.769850158691406250e+01
5.690850067138671875e+01
5.546097946166992188e+01
5.427574920654296875e+01
5.322181320190429688e+01
5.190532302856445312e+01
5.058879852294921875e+01
4.874496459960937500e+01
4.742890167236328125e+01
4.584899902343750000e+01
4.439930725097656250e+01
4.321414184570312500e+01
4.163397979736328125e+01
4.071419906616210938e+01
3.965851974487304688e+01
3.873929977416992188e+01
3.807802581787109375e+01
3.755429840087890625e+01
3.676440048217773438e+01
3.676440048217773438e+01
3.636940002441406250e+01
3.597439956665039062e+01
3.557939910888671875e+01
3.518439865112304688e+01
3.478950119018554688e+01
3.452085494995117188e+01
3.439450073242187500e+01
3.373032760620117188e+01
3.347893524169921875e+01
3.320949935913085938e+01
3.281449890136718750e+01
3.202460098266601562e+01
3.202460098266601562e+01
3.175384902954101562e+01
3.162960052490234375e+01
3.123460006713867188e+01
3.123460006713867188e+01
3.083959960937500000e+01
3.071666908264160156e+01
3.044459915161132812e+01
3.004969978332519531e+01
3.004969978332519531e+01
2.965469932556152344e+01
2.965469932556152344e+01
2.925970077514648438e+01
2.886470031738281250e+01
2.886470031738281250e+01
2.886470031738281250e+01
2.846969985961914062e+01
2.846969985961914062e+01
2.846969985961914062e+01
2.846969985961914062e+01
2.846969985961914062e+01
2.846969985961914062e+01
2.846969985961914062e+01
2.807480049133300781e+01
2.807480049133300781e+01
2.807480049133300781e+01
2.807480049133300781e+01
2.807480049133300781e+01
2.807480049133300781e+01
2.807480049133300781e+01
2.779640960693359375e+01
2.807480049133300781e+01
2.807480049133300781e+01
2.807480049133300781e+01
2.779535675048828125e+01
2.807480049133300781e+01
2.807480049133300781e+01
2.807480049133300781e+01
2.807480049133300781e+01
2.807480049133300781e+01
2.807480049133300781e+01
2.807480049133300781e+01
2.846969985961914062e+01
2.807480049133300781e+01
2.807480049133300781e+01
2.807480049133300781e+01
2.807480049133300781e+01
2.807480049133300781e+01
2.818664169311523438e+01
2.835812187194824219e+01
2.846969985961914062e+01
2.846969985961914062e+01
2.875388336181640625e+01
2.846969985961914062e+01
2.875441169738769531e+01
2.875467491149902344e+01
2.886470031738281250e+01
2.925970077514648438e+01
2.925970077514648438e+01
2.925970077514648438e+01
2.965469932556152344e+01
3.033618164062500000e+01
3.112641716003417969e+01
3.162960052490234375e+01
3.310184478759765625e+01
3.507703399658203125e+01
3.665727233886718750e+01
3.863243484497070312e+01
4.100259780883789062e+01
4.326642227172851562e+01
4.574292373657226562e+01
4.811308670043945312e+01
5.048325347900390625e+01
5.274813079833984375e+01
5.443357849121093750e+01
5.601374053955078125e+01
5.730350112915039062e+01
5.848839950561523438e+01
5.888339996337890625e+01
5.927840042114257812e+01
5.938183975219726562e+01
5.927840042114257812e+01
5.888339996337890625e+01
5.859105300903320312e+01
5.809339904785156250e+01
5.730350112915039062e+01
5.661536026000976562e+01
5.572349929809570312e+01
5.453860092163085938e+01
5.374860000610351562e+01
5.226950836181640625e+01
5.137870025634765625e+01
5.029408264160156250e+01
4.910881805419921875e+01
4.792365264892578125e+01
4.634346389770507812e+01
4.505899810791015625e+01
4.387409973144531250e+01
4.239279937744140625e+01
4.120763778686523438e+01
4.002237319946289062e+01
3.913430023193359375e+01
3.834429931640625000e+01
3.755429840087890625e+01
3.676440048217773438e+01
3.646625518798828125e+01
3.627280807495117188e+01
3.597439956665039062e+01
3.528046798706054688e+01
3.518439865112304688e+01
3.478950119018554688e+01
3.448977661132812500e+01
3.439450073242187500e+01
3.399950027465820312e+01
3.360449981689453125e+01
3.360449981689453125e+01
3.330345916748046875e+01
3.320949935913085938e+01
3.281449890136718750e+01
3.241960144042968750e+01
3.202460098266601562e+01
3.162960052490234375e+01
3.162960052490234375e+01
3.153748321533203125e+01
3.123460006713867188e+01
3.083959960937500000e+01
3.083959960937500000e+01
3.044459915161132812e+01
3.044459915161132812e+01
3.004969978332519531e+01
3.004969978332519531e+01
2.974470901489257812e+01
2.965469932556152344e+01
2.965469932556152344e+01
2.965469932556152344e+01
2.956574440002441406e+01
2.925970077514648438e+01
2.925970077514648438e+01
2.917153358459472656e+01
2.886470031738281250e+01
2.886470031738281250e+01
2.886470031738281250e+01
2.886470031738281250e+01
2.886470031738281250e+01
2.886470031738281250e+01
2.886470031738281250e+01
2.846969985961914062e+01
2.846969985961914062e+01
2.846969985961914062e+01
2.846969985961914062e+01
2.846969985961914062e+01
2.846969985961914062e+01
2.855417823791503906e+01
2.846969985961914062e+01
2.846969985961914062e+01
2.846969985961914062e+01
2.846969985961914062e+01
2.846969985961914062e+01
2.846969985961914062e+01
2.846969985961914062e+01
2.846969985961914062e+01
2.886470031738281250e+01
2.878285598754882812e+01
2.886470031738281250e+01
2.886470031738281250e+01
2.886470031738281250e+01
2.886470031738281250e+01
2.878417205810546875e+01
2.886470031738281250e+01
2.925970077514648438e+01
2.925970077514648438e+01
2.925970077514648438e+01
2.925970077514648438e+01
2.925970077514648438e+01
2.925970077514648438e+01
2.957627868652343750e+01
2.965469932556152344e+01
2.997180557250976562e+01
3.044459915161132812e+01
3.083959960937500000e+01
3.155249595642089844e+01
3.281449890136718750e+01
3.439450073242187500e+01
3.557939910888671875e+01
3.715940093994140625e+01
3.977264404296875000e+01
4.182367706298828125e+01
4.419375991821289062e+01
4.656392288208007812e+01
4.893408584594726562e+01
5.162477874755859375e+01
5.367441177368164062e+01
5.564957427978515625e+01
5.722982025146484375e+01
5.848839950561523438e+01
5.920524597167968750e+01
5.967340087890625000e+01
6.006840133666992188e+01
5.967340087890625000e+01
5.999629974365234375e+01
5.935023498535156250e+01
5.888339996337890625e+01
5.816471099853515625e+01
5.737454605102539062e+01
5.658428192138671875e+01
5.532860183715820312e+01
5.453860092163085938e+01
5.335369873046875000e+01
5.184342956542968750e+01
5.065826416015625000e+01
4.947300338745117188e+01
4.789283752441406250e+01
4.670757675170898438e+01
4.512741088867187500e+01
4.394223022460937500e+01
4.268909835815429688e+01
4.150419998168945312e+01
4.031919860839843750e+01
3.913430023193359375e+01
3.834429931640625000e+01
3.722595214843750000e+01
3.709309387207031250e+01
3.643544006347656250e+01
3.604018020629882812e+01
3.564491653442382812e+01
3.557939910888671875e+01
3.557939910888671875e+01
3.518439865112304688e+01
3.478950119018554688e+01
3.478950119018554688e+01
3.439450073242187500e+01
3.399950027465820312e+01
3.360449981689453125e+01
3.320949935913085938e+01
3.281449890136718750e+01
3.281449890136718750e+01
3.241960144042968750e+01
3.241960144042968750e+01
3.169142723083496094e+01
3.162960052490234375e+01
3.123460006713867188e+01
3.090063858032226562e+01
3.083959960937500000e+01
3.083959960937500000e+01
3.083959960937500000e+01
3.044459915161132812e+01
3.044459915161132812e+01
3.004969978332519531e+01
2.965469932556152344e+01
2.999076843261718750e+01
2.965469932556152344e+01
2.965469932556152344e+01
2.925970077514648438e+01
2.925970077514648438e+01
2.925970077514648438e+01
2.925970077514648438e+01
2.886470031738281250e+01
2.886470031738281250e+01
2.852626037597656250e+01
2.886470031738281250e+01
2.886470031738281250e+01
2.886470031738281250e+01
2.880919265747070312e+01
2.846969985961914062e+01
2.846969985961914062e+01
2.846969985961914062e+01
2.846969985961914062e+01
2.846969985961914062e+01
2.846969985961914062e+01
2.846969985961914062e+01
2.846969985961914062e+01
2.846969985961914062e+01
2.846969985961914062e+01
2.881208992004394531e+01
2.846969985961914062e+01
2.846969985961914062e+01
2.846969985961914062e+01
2.881314468383789062e+01
2.812607955932617188e+01
2.846969985961914062e+01
2.846969985961914062e+01
2.886470031738281250e+01
2.886470031738281250e+01
2.886470031738281250e+01
2.886470031738281250e+01
2.886470031738281250e+01
2.886470031738281250e+01
2.886470031738281250e+01
2.886470031738281250e+01
2.886470031738281250e+01
2.891283226013183594e+01
2.886470031738281250e+01
2.925970077514648438e+01
2.925970077514648438e+01
2.960762214660644531e+01
2.965469932556152344e+01
3.000314712524414062e+01
3.009597587585449219e+01
3.083959960937500000e+01
3.162960052490234375e+01
3.241960144042968750e+01
3.360449981689453125e+01
3.518439865112304688e+01
3.671969223022460938e+01
3.873929977416992188e+01
4.141583633422851562e+01
4.383018112182617188e+01
4.620034408569335938e+01
4.857050704956054688e+01
5.094067382812500000e+01
5.331083679199218750e+01
5.493360137939453125e+01
5.690850067138671875e+01
5.879925155639648438e+01
5.967340087890625000e+01
6.042176437377929688e+01
6.046329879760742188e+01
6.125329971313476562e+01
6.085829925537109375e+01
6.085829925537109375e+01
6.046329879760742188e+01
5.971336746215820312e+01
5.892310333251953125e+01
5.848839950561523438e+01
5.769850158691406250e+01
5.611849975585937500e+01
5.536724090576171875e+01
5.453860092163085938e+01
5.295869827270507812e+01
5.141656112670898438e+01
5.058879852294921875e+01
4.900880050659179688e+01
4.746596908569335938e+01
4.628079605102539062e+01
4.505899810791015625e+01
4.351538085937500000e+01
4.233011627197265625e+01
4.110919952392578125e+01
3.992419815063476562e+01
3.913430023193359375e+01
3.794929885864257812e+01
3.755429840087890625e+01
3.715940093994140625e+01
3.676440048217773438e+01
3.676440048217773438e+01
3.600804519653320312e+01
3.557939910888671875e+01
3.518439865112304688e+01
3.482234954833984375e+01
3.478950119018554688e+01
3.403182983398437500e+01
3.363656616210937500e+01
3.360449981689453125e+01
3.320949935913085938e+01
3.317822265625000000e+01
3.281449890136718750e+01
3.278376007080078125e+01
3.241960144042968750e+01
3.205482101440429688e+01
3.202460098266601562e+01
3.162960052490234375e+01
3.162960052490234375e+01
3.123460006713867188e+01
3.123460006713867188e+01
3.083959960937500000e+01
3.081122016906738281e+01
3.044459915161132812e+01
3.044459915161132812e+01
3.041701889038085938e+01
3.004969978332519531e+01
3.004969978332519531e+01
3.004969978332519531e+01
3.004969978332519531e+01
2.965469932556152344e+01
2.965469932556152344e+01
2.925970077514648438e+01
2.925970077514648438e+01
2.886470031738281250e+01
2.883974456787109375e+01
2.886470031738281250e+01
2.886470031738281250e+01
2.886470031738281250e+01
2.886470031738281250e+01
2.886470031738281250e+01
2.886470031738281250e+01
2.886470031738281250e+01
2.886470031738281250e+01
2.886470031738281250e+01
2.886470031738281250e+01
2.886470031738281250e+01
2.886470031738281250e+01
2.886470031738281250e+01
2.886470031738281250e+01
2.886470031738281250e+01
2.886470031738281250e+01
2.886470031738281250e+01
2.886470031738281250e+01
2.884474945068359375e+01
2.924001312255859375e+01
2.925970077514648438e+01
2.925970077514648438e+01
2.888359642028808594e+01
2.925970077514648438e+01
2.888306999206542969e+01
2.925970077514648438e+01
2.925970077514648438e+01
2.925970077514648438e+01
2.925970077514648438e+01
2.927675437927246094e+01
2.963790893554687500e+01
2.965469932556152344e+01
3.003343582153320312e+01
3.003369903564453125e+01
3.004969978332519531e+01
3.044459915161132812e+01
3.121939086914062500e+01
3.200965499877929688e+01
3.279981994628906250e+01
3.438008117675781250e+01
3.557939910888671875e+01
3.754040908813476562e+01
3.952930068969726562e+01
4.226737213134765625e+01
4.463779830932617188e+01
4.702106094360351562e+01
4.939122390747070312e+01
5.176138687133789062e+01
5.451449966430664062e+01
5.609493255615234375e+01
5.769850158691406250e+01
5.966213989257812500e+01
6.006840133666992188e+01
6.085829925537109375e+01
6.124283218383789062e+01
6.125329971313476562e+01
6.125329971313476562e+01
6.125329971313476562e+01
6.085829925537109375e+01
6.007754898071289062e+01
5.928728866577148438e+01
5.889202499389648438e+01
5.770685958862304688e+01
5.691659927368164062e+01
5.612633514404296875e+01
5.493360137939453125e+01
5.336100769042968750e+01
5.256370162963867188e+01
5.099058151245117188e+01
4.941032028198242188e+01
4.822515487670898438e+01
4.664489364624023438e+01
4.545972824096679688e+01
4.426900100708007812e+01
4.269430160522460938e+01
4.150419998168945312e+01
4.071419906616210938e+01
3.953371047973632812e+01
3.873929977416992188e+01
3.834429931640625000e+01
3.755429840087890625e+01
3.716275787353515625e+01
3.676440048217773438e+01
3.637223052978515625e+01
3.597439956665039062e+01
3.558170318603515625e+01
3.557939910888671875e+01
3.518617630004882812e+01
3.479101562500000000e+01
3.439575195312500000e+01
3.439450073242187500e+01
3.399950027465820312e+01
3.360449981689453125e+01
3.320969772338867188e+01
3.281449890136718750e+01
3.281417083740234375e+01
3.241960144042968750e+01
3.241960144042968750e+01
3.202460098266601562e+01
3.162960052490234375e+01
3.162960052490234375e+01
3.123460006713867188e+01
3.123242759704589844e+01
3.083716392517089844e+01
3.044459915161132812e+01
3.044459915161132812e+01
3.044459915161132812e+01
3.004969978332519531e+01
3.004969978332519531e+01
2.965871620178222656e+01
2.965469932556152344e+01
2.965469932556152344e+01
2.965469932556152344e+01
2.965469932556152344e+01
2.965469932556152344e+01
2.965469932556152344e+01
2.964883995056152344e+01
2.925970077514648438e+01
2.925970077514648438e+01
2.925970077514648438e+01
2.925278663635253906e+01
2.886470031738281250e+01
2.886470031738281250e+01
2.886470031738281250e+01
2.886470031738281250e+01
2.886470031738281250e+01
2.847819328308105469e+01
2.886470031738281250e+01
2.886470031738281250e+01
2.886470031738281250e+01
2.886470031738281250e+01
2.886470031738281250e+01
2.886470031738281250e+01
2.886470031738281250e+01
2.886470031738281250e+01
2.886470031738281250e+01
2.886470031738281250e+01
2.848109054565429688e+01
2.886470031738281250e+01
2.924778175354003906e+01
2.925970077514648438e+01
2.925970077514648438e+01
2.927240753173828125e+01
2.965469932556152344e+01
2.964146614074707031e+01
2.927319717407226562e+01
2.965469932556152344e+01
2.965469932556152344e+01
2.965469932556152344e+01
2.966925239562988281e+01
3.006451034545898438e+01
3.044459915161132812e+01
3.085494232177734375e+01
3.162960052490234375e+01
3.202460098266601562e+01
3.360449981689453125e+01
3.518439865112304688e+01
3.638605880737304688e+01
3.836122131347656250e+01
4.073138427734375000e+01
4.310154724121093750e+01
4.586671066284179688e+01
4.823687362670898438e+01
5.100203323364257812e+01
5.337219619750976562e+01
5.534736251831054688e+01
5.730350112915039062e+01
5.890269088745117188e+01
6.046329879760742188e+01
6.087812042236328125e+01
6.164830017089843750e+01
6.206364440917968750e+01
6.204330062866210938e+01
6.202242660522460938e+01
6.164830017089843750e+01
6.123189926147460938e+01
6.046329879760742188e+01
6.004647445678710938e+01
5.925621032714843750e+01
5.809339904785156250e+01
5.728078460693359375e+01
5.611849975585937500e+01
5.530535507202148438e+01
5.412009429931640625e+01
5.256370162963867188e+01
5.135467147827148438e+01
4.979880142211914062e+01
4.858934020996093750e+01
4.700907516479492188e+01
4.545399856567382812e+01
4.424365615844726562e+01
4.268909835815429688e+01
4.187332153320312500e+01
4.068806076049804688e+01
3.913430023193359375e+01
3.871263122558593750e+01
3.794929885864257812e+01
3.715940093994140625e+01
3.713194274902343750e+01
3.634167861938476562e+01
3.636940002441406250e+01
3.597439956665039062e+01
3.557939910888671875e+01
3.518439865112304688e+01
3.515536880493164062e+01
3.478950119018554688e+01
3.436493682861328125e+01
3.399950027465820312e+01
3.360449981689453125e+01
3.320949935913085938e+01
3.278388977050781250e+01
3.241960144042968750e+01
3.238845443725585938e+01
3.199319267272949219e+01
3.162960052490234375e+01
3.126653480529785156e+01
3.083959960937500000e+01
3.083959960937500000e+01
3.044459915161132812e+01
2.968768882751464844e+01
3.001644897460937500e+01
2.965469932556152344e+01
2.925970077514648438e+01
2.962065887451171875e+01
2.925970077514648438e+01
2.925970077514648438e+01
2.886470031738281250e+01
2.889979553222656250e+01
2.886470031738281250e+01
2.886470031738281250e+01
2.846969985961914062e+01
2.846969985961914062e+01
2.846969985961914062e+01
2.846969985961914062e+01
2.846969985961914062e+01
2.846969985961914062e+01
2.846969985961914062e+01
2.846969985961914062e+01
2.846969985961914062e+01
2.846969985961914062e+01
2.807480049133300781e+01
2.807480049133300781e+01
2.807480049133300781e+01
2.807480049133300781e+01
2.807480049133300781e+01
2.807480049133300781e+01
2.807480049133300781e+01
2.811515235900878906e+01
2.811541557312011719e+01
2.807480049133300781e+01
2.807480049133300781e+01
2.772121620178222656e+01
2.807480049133300781e+01
2.807480049133300781e+01
2.807480049133300781e+01
2.807480049133300781e+01
2.846969985961914062e+01
2.846969985961914062e+01
2.846969985961914062e+01
2.846969985961914062e+01
2.846969985961914062e+01
2.846969985961914062e+01
2.851401329040527344e+01
2.886470031738281250e+01
2.886470031738281250e+01
2.890980339050292969e+01
2.925970077514648438e+01
2.925970077514648438e+01
2.930559349060058594e+01
3.004969978332519531e+01
3.044459915161132812e+01
3.083959960937500000e+01
3.246653366088867188e+01
3.404671096801757812e+01
3.557939910888671875e+01
3.725486373901367188e+01
3.957728958129882812e+01
4.160071563720703125e+01
4.357614135742187500e+01
4.629277801513671875e+01
4.866294097900390625e+01
5.103310394287109375e+01
5.300828170776367188e+01
5.458844375610351562e+01
5.651350021362304688e+01
5.730350112915039062e+01
5.814403533935546875e+01
5.888339996337890625e+01
5.927840042114257812e+01
5.888339996337890625e+01
5.888339996337890625e+01
5.854035186767578125e+01
5.809339904785156250e+01
5.730350112915039062e+01
5.651350021362304688e+01
5.572349929809570312e+01
5.527533340454101562e+01
5.453860092163085938e+01
5.329990386962890625e+01
5.216870117187500000e+01
5.098379898071289062e+01
5.013921356201171875e+01
4.821889877319335938e+01
4.697878646850585938e+01
4.579362487792968750e+01
4.426900100708007812e+01
4.342319869995117188e+01
4.184303665161132812e+01
4.065777206420898438e+01
3.952930068969726562e+01
3.873929977416992188e+01
3.794929885864257812e+01
3.755429840087890625e+01
3.715940093994140625e+01
3.636940002441406250e+01
3.597439956665039062e+01
3.557939910888671875e+01
3.524319839477539062e+01
3.512535095214843750e+01
3.478950119018554688e+01
3.445409011840820312e+01
3.439450073242187500e+01
3.399950027465820312e+01
3.360449981689453125e+01
3.320949935913085938e+01
3.281449890136718750e+01
3.281449890136718750e+01
3.241960144042968750e+01
3.235790252685546875e+01
3.202460098266601562e+01
3.196237754821777344e+01
3.162960052490234375e+01
3.156685066223144531e+01
3.123460006713867188e+01
3.083959960937500000e+01
3.083959960937500000e+01
3.083959960937500000e+01
3.044459915161132812e+01
3.044459915161132812e+01
3.004969978332519531e+01
2.971955680847167969e+01
2.965469932556152344e+01
2.965469932556152344e+01
2.932534599304199219e+01
2.925970077514648438e+01
2.925970077514648438e+01
2.919326400756835938e+01
2.893140029907226562e+01
2.886470031738281250e+01
2.886470031738281250e+01
2.886470031738281250e+01
2.886470031738281250e+01
2.893271636962890625e+01
2.853798103332519531e+01
2.886470031738281250e+01
2.886470031738281250e+01
2.886470031738281250e+01
2.886470031738281250e+01
2.886470031738281250e+01
2.886470031738281250e+01
2.879457664489746094e+01
2.886470031738281250e+01
2.886470031738281250e+01
2.886470031738281250e+01
2.886470031738281250e+01
2.886470031738281250e+01
2.893640518188476562e+01
2.886470031738281250e+01
2.886470031738281250e+01
2.886470031738281250e+01
2.886470031738281250e+01
2.886470031738281250e+01
2.886470031738281250e+01
2.886470031738281250e+01
2.886470031738281250e+01
2.918562507629394531e+01
2.886470031738281250e+01
2.886470031738281250e+01
2.886470031738281250e+01
2.893982887268066406e+01
2.925970077514648438e+01
2.925970077514648438e+01
2.925970077514648438e+01
2.925970077514648438e+01
2.925970077514648438e+01
2.925970077514648438e+01
2.925970077514648438e+01
2.965469932556152344e+01
3.004969978332519531e+01
3.044459915161132812e+01
3.131262588500976562e+01
3.202460098266601562e+01
3.328805160522460938e+01
3.486829757690429688e+01
3.644847869873046875e+01
3.881864166259765625e+01
4.118880462646484375e+01
4.355896759033203125e+01
4.561426544189453125e+01
4.790429687500000000e+01
5.035511779785156250e+01
5.264462280273437500e+01
5.461978530883789062e+01
5.619995117187500000e+01
5.769850158691406250e+01
5.880142211914062500e+01
5.927840042114257812e+01
6.006840133666992188e+01
6.006840133666992188e+01
5.967340087890625000e+01
5.927840042114257812e+01
5.927840042114257812e+01
5.848839950561523438e+01
5.769850158691406250e+01
5.730350112915039062e+01
5.642889022827148438e+01
5.524372482299804688e+01
5.414360046386718750e+01
5.295869827270507812e+01
5.168803787231445312e+01
5.050287246704101562e+01
4.900880050659179688e+01
4.782389831542968750e+01
4.655220413208007812e+01
4.466400146484375000e+01
4.378685760498046875e+01
4.260159301757812500e+01
4.110919952392578125e+01
4.023116683959960938e+01
3.913430023193359375e+01
3.834429931640625000e+01
3.755429840087890625e+01
3.715940093994140625e+01
3.676440048217773438e+01
3.636940002441406250e+01
3.597439956665039062e+01
3.557939910888671875e+01
3.518439865112304688e+01
3.509375381469726562e+01
3.469857025146484375e+01
3.430330657958984375e+01
3.390804290771484375e+01
3.360449981689453125e+01
3.351251602172851562e+01
3.281449890136718750e+01
3.272201156616210938e+01
3.241960144042968750e+01
3.202460098266601562e+01
3.202460098266601562e+01
3.162960052490234375e+01
3.123460006713867188e+01
3.123460006713867188e+01
3.114024543762207031e+01
3.083959960937500000e+01
3.044459915161132812e+01
3.044459915161132812e+01
3.044459915161132812e+01
3.004969978332519531e+01
2.995376396179199219e+01
2.975089836120605469e+01
2.965469932556152344e+01
2.965469932556152344e+01
2.955771064758300781e+01
2.955744743347167969e+01
2.925970077514648438e+01
2.916192054748535156e+01
2.886470031738281250e+01
2.886470031738281250e+01
2.886470031738281250e+01
2.886470031738281250e+01
2.886470031738281250e+01
2.886470031738281250e+01
2.886470031738281250e+01
2.886470031738281250e+01
2.886470031738281250e+01
2.886470031738281250e+01
2.886470031738281250e+01
2.846969985961914062e+01
2.846969985961914062e+01
2.846969985961914062e+01
2.846969985961914062e+01
2.846969985961914062e+01
2.857195663452148438e+01
2.846969985961914062e+01
2.846969985961914062e+01
2.846969985961914062e+01
2.846969985961914062e+01
2.846969985961914062e+01
2.846969985961914062e+01
2.846969985961914062e+01
2.846969985961914062e+01
2.876007270812988281e+01
2.846969985961914062e+01
2.846969985961914062e+01
2.846969985961914062e+01
2.846969985961914062e+01
2.886470031738281250e+01
2.897090721130371094e+01
2.886470031738281250e+01
2.897143363952636719e+01
2.925970077514648438e+01
2.925970077514648438e+01
2.925970077514648438e+01
2.925970077514648438e+01
2.925970077514648438e+01
2.965469932556152344e+01
2.925970077514648438e+01
3.004969978332519531e+01
3.015877723693847656e+01
3.083959960937500000e+01
3.134423065185546875e+01
3.241960144042968750e+01
3.410965728759765625e+01
3.529482269287109375e+01
3.715940093994140625e+01
3.935616683959960938e+01
4.201038360595703125e+01
4.477547454833984375e+01
4.714563751220703125e+01
4.951580047607421875e+01
5.188596343994140625e+01
5.425612640380859375e+01
5.583629226684570312e+01
5.741655349731445312e+01
5.927840042114257812e+01
6.006840133666992188e+01
6.046329879760742188e+01
6.085829925537109375e+01
6.085829925537109375e+01
6.085829925537109375e+01
6.046329879760742188e+01
6.046329879760742188e+01
5.967340087890625000e+01
5.899908828735351562e+01
5.837244796752929688e+01
5.730350112915039062e+01
5.611849975585937500e+01
5.521185684204101562e+01
5.414360046386718750e+01
5.256370162963867188e+01
5.137870025634765625e+01
5.007600402832031250e+01
4.889076995849609375e+01
4.703390121459960938e+01
4.573041534423828125e+01
4.426900100708007812e+01
4.308409881591796875e+01
4.177982330322265625e+01
4.059456253051757812e+01
3.980432891845703125e+01
3.873929977416992188e+01
3.767472839355468750e+01
3.743363952636718750e+01
3.715940093994140625e+01
3.664318084716796875e+01
3.624791717529296875e+01
3.597439956665039062e+01
3.557939910888671875e+01
3.557939910888671875e+01
3.506189346313476562e+01
3.466670227050781250e+01
3.439450073242187500e+01
3.427117538452148438e+01
3.387591171264648438e+01
3.360449981689453125e+01
3.320949935913085938e+01
3.281449890136718750e+01
3.268988800048828125e+01
3.241960144042968750e+01
3.162960052490234375e+01
3.162960052490234375e+01
3.123460006713867188e+01
3.096556091308593750e+01
3.083959960937500000e+01
3.044459915161132812e+01
3.044459915161132812e+01
3.004969978332519531e+01
2.978197669982910156e+01
2.965469932556152344e+01
2.965469932556152344e+01
2.952663230895996094e+01
2.925970077514648438e+01
2.925970077514648438e+01
2.886470031738281250e+01
2.886470031738281250e+01
2.886470031738281250e+01
2.886470031738281250e+01
2.886470031738281250e+01
2.886470031738281250e+01
2.886470031738281250e+01
2.886470031738281250e+01
2.886470031738281250e+01
2.886470031738281250e+01
2.886470031738281250e+01
2.846969985961914062e+01
2.846969985961914062e+01
2.846969985961914062e+01
2.846969985961914062e+01
2.846969985961914062e+01
2.846969985961914062e+01
2.846969985961914062e+01
2.846969985961914062e+01
2.846969985961914062e+01
2.846969985961914062e+01
2.846969985961914062e+01
2.846969985961914062e+01
2.872978591918945312e+01
2.846969985961914062e+01
2.846969985961914062e+01
2.846969985961914062e+01
2.846969985961914062e+01
2.846969985961914062e+01
2.846969985961914062e+01
2.872794151306152344e+01
2.886470031738281250e+01
2.886470031738281250e+01
2.886470031738281250e+01
2.886470031738281250e+01
2.886470031738281250e+01
2.886470031738281250e+01
2.886470031738281250e+01
2.886470031738281250e+01
2.900382995605468750e+01
2.925970077514648438e+01
2.925970077514648438e+01
2.965469932556152344e+01
3.004969978332519531e+01
3.083959960937500000e+01
3.123460006713867188e+01
3.241960144042968750e+01
3.335073471069335938e+01
3.478950119018554688e+01
3.611616134643554688e+01
3.809132766723632812e+01
3.941884231567382812e+01
4.178926849365234375e+01
4.441181564331054688e+01
4.678197860717773438e+01
4.890055084228515625e+01
5.112736892700195312e+01
5.324640274047851562e+01
5.547269821166992188e+01
5.665789794921875000e+01
5.784312438964843750e+01
5.888339996337890625e+01
5.927840042114257812e+01
5.967340087890625000e+01
5.981911468505859375e+01
5.992242431640625000e+01
5.927840042114257812e+01
5.927840042114257812e+01
5.888339996337890625e+01
5.809339904785156250e+01
5.755120468139648438e+01
5.690850067138671875e+01
5.597068023681640625e+01
5.453860092163085938e+01
5.360029220581054688e+01
5.256370162963867188e+01
5.098379898071289062e+01
4.979880142211914062e+01
4.861389923095703125e+01
4.767423629760742188e+01
4.609407424926757812e+01
4.426900100708007812e+01
4.332864761352539062e+01
4.189920043945312500e+01
4.110919952392578125e+01
3.977299499511718750e+01
3.913430023193359375e+01
3.834429931640625000e+01
3.731139755249023438e+01
3.715940093994140625e+01
3.676440048217773438e+01
3.636940002441406250e+01
3.597439956665039062e+01
3.597439956665039062e+01
3.573301315307617188e+01
3.518439865112304688e+01
3.518439865112304688e+01
3.463509368896484375e+01
3.439450073242187500e+01
3.399950027465820312e+01
3.360449981689453125e+01
3.320949935913085938e+01
3.305377960205078125e+01
3.281449890136718750e+01
3.241960144042968750e+01
3.226308822631835938e+01
3.202460098266601562e+01
3.202460098266601562e+01
3.162960052490234375e+01
3.139216613769531250e+01
3.147177124023437500e+01
3.083959960937500000e+01
3.083959960937500000e+01
3.004969978332519531e+01
3.044459915161132812e+01
3.004969978332519531e+01
2.989029121398925781e+01
2.965469932556152344e+01
2.941963577270507812e+01
2.965469932556152344e+01
2.965469932556152344e+01
2.925970077514648438e+01
2.925970077514648438e+01
2.886470031738281250e+01
2.886470031738281250e+01
2.886470031738281250e+01
2.886470031738281250e+01
2.886470031738281250e+01
2.886470031738281250e+01
2.886470031738281250e+01
2.846969985961914062e+01
2.846969985961914062e+01
2.846969985961914062e+01
2.846969985961914062e+01
2.846969985961914062e+01
2.846969985961914062e+01
2.846969985961914062e+01
2.846969985961914062e+01
2.846969985961914062e+01
2.846969985961914062e+01
2.846969985961914062e+01
2.807480049133300781e+01
2.807480049133300781e+01
2.807480049133300781e+01
2.807480049133300781e+01
2.807480049133300781e+01
2.846969985961914062e+01
2.846969985961914062e+01
2.846969985961914062e+01
2.830164146423339844e+01
2.846969985961914062e+01
2.846969985961914062e+01
2.863858985900878906e+01
2.869554519653320312e+01
2.886470031738281250e+01
2.886470031738281250e+01
2.886470031738281250e+01
2.886470031738281250e+01
2.886470031738281250e+01
2.886470031738281250e+01
2.908870315551757812e+01
2.886470031738281250e+01
2.925970077514648438e+01
2.943148803710937500e+01
2.982675170898437500e+01
3.022197151184082031e+01
3.123460006713867188e+01
3.219744110107421875e+01
3.338260650634765625e+01
3.513619232177734375e+01
3.654302978515625000e+01
3.812319564819335938e+01
4.049335861206054688e+01
4.246852111816406250e+01
4.461837005615234375e+01
4.681384658813476562e+01
4.861389923095703125e+01
5.036927413940429688e+01
5.234443664550781250e+01
5.352965545654296875e+01
5.453860092163085938e+01
5.572349929809570312e+01
5.611849975585937500e+01
5.669055557250976562e+01
5.690850067138671875e+01
5.712591934204101562e+01
5.690850067138671875e+01
5.651350021362304688e+01
5.633512878417968750e+01
5.572349929809570312e+01
5.532860183715820312e+01
5.453860092163085938e+01
5.396417236328125000e+01
5.295869827270507812e+01
5.238374710083007812e+01
5.137870025634765625e+01
5.019380187988281250e+01
4.922305679321289062e+01
4.803789520263671875e+01
4.685263061523437500e+01
4.566746902465820312e+01
4.408724975585937500e+01
4.308409881591796875e+01
4.189920043945312500e+01
4.092661285400390625e+01
3.992419815063476562e+01
3.873929977416992188e+01
3.816092300415039062e+01
3.755429840087890625e+01
3.697549819946289062e+01
3.636940002441406250e+01
3.597439956665039062e+01
3.557939910888671875e+01
3.539444351196289062e+01
3.518439865112304688e+01
3.460401535034179688e+01
3.439450073242187500e+01
3.420848846435546875e+01
3.399950027465820312e+01
3.360449981689453125e+01
3.320949935913085938e+01
3.281449890136718750e+01
3.262722015380859375e+01
3.241960144042968750e+01
3.202460098266601562e+01
3.162960052490234375e+01
3.144121932983398438e+01
3.123460006713867188e+01
3.083959960937500000e+01
3.044459915161132812e+01
3.044459915161132812e+01
3.025495147705078125e+01
2.965469932556152344e+01
2.965469932556152344e+01
2.965469932556152344e+01
2.925970077514648438e+01
2.905571365356445312e+01
2.886470031738281250e+01
2.886470031738281250e+01
2.886470031738281250e+01
2.886470031738281250e+01
2.846969985961914062e+01
2.846969985961914062e+01
2.827689170837402344e+01
2.826787185668945312e+01
2.807480049133300781e+01
2.807480049133300781e+01
2.807480049133300781e+01
2.807480049133300781e+01
2.807480049133300781e+01
2.788009834289550781e+01
2.767980003356933594e+01
2.767980003356933594e+01
2.767980003356933594e+01
2.767980003356933594e+01
2.767980003356933594e+01
2.748108100891113281e+01
2.748325538635253906e+01
2.728479957580566406e+01
2.728479957580566406e+01
2.728479957580566406e+01
2.728479957580566406e+01
2.748266220092773438e+01
2.728479957580566406e+01
2.748318862915039062e+01
2.767980003356933594e+01
2.728479957580566406e+01
2.728479957580566406e+01
2.728479957580566406e+01
2.767980003356933594e+01
2.728479957580566406e+01
2.767980003356933594e+01
2.767980003356933594e+01
2.767980003356933594e+01
2.767980003356933594e+01
2.767980003356933594e+01
2.767980003356933594e+01
2.767980003356933594e+01
2.767980003356933594e+01
2.767980003356933594e+01
2.748740386962890625e+01
2.767980003356933594e+01
2.787166976928710938e+01
2.807480049133300781e+01
2.827840423583984375e+01
2.846969985961914062e+01
2.886470031738281250e+01
2.965469932556152344e+01
3.004969978332519531e+01
3.123460006713867188e+01
3.222983551025390625e+01
3.341500091552734375e+01
3.460026168823242188e+01
3.597439956665039062e+01
3.776058959960937500e+01
3.915240859985351562e+01
4.092101669311523438e+01
4.250117874145507812e+01
4.447634506225585938e+01
4.566160583496093750e+01
4.684677124023437500e+01
4.782389831542968750e+01
4.861389923095703125e+01
4.940380096435546875e+01
5.000772476196289062e+01
5.019380187988281250e+01
5.040325164794921875e+01
5.040351486206054688e+01
5.058879852294921875e+01
5.058879852294921875e+01
5.019380187988281250e+01
4.979880142211914062e+01
4.979880142211914062e+01
4.940380096435546875e+01
4.900880050659179688e+01
4.840208053588867188e+01
4.761181640625000000e+01
4.682155227661132812e+01
4.603138732910156250e+01
4.505899810791015625e+01
4.405591583251953125e+01
4.308409881591796875e+01
4.208049011230468750e+01
4.110919952392578125e+01
4.031919860839843750e+01
3.952930068969726562e+01
3.852458190917968750e+01
3.794929885864257812e+01
3.755429840087890625e+01
3.715940093994140625e+01
3.676440048217773438e+01
3.636940002441406250e+01
3.615310287475585938e+01
3.579596328735351562e+01
3.557939910888671875e+01
3.536231231689453125e+01
3.496710205078125000e+01
3.478950119018554688e+01
3.439450073242187500e+01
3.399950027465820312e+01
3.399950027465820312e+01
3.360449981689453125e+01
3.320949935913085938e+01
3.281449890136718750e+01
3.281449890136718750e+01
3.224432373046875000e+01
3.202460098266601562e+01
3.202460098266601562e+01
3.185011291503906250e+01
3.185037612915039062e+01
3.140855979919433594e+01
3.123460006713867188e+01
3.123460006713867188e+01
3.123460006713867188e+01
3.083959960937500000e+01
3.061724472045898438e+01
3.044459915161132812e+01
3.044459915161132812e+01
3.004969978332519531e+01
3.004969978332519531e+01
2.982602691650390625e+01
2.965469932556152344e+01
2.965469932556152344e+01
2.965469932556152344e+01
2.965469932556152344e+01
2.965469932556152344e+01
2.948495292663574219e+01
2.942918395996093750e+01
2.925970077514648438e+01
2.925970077514648438e+01
2.925970077514648438e+01
2.925970077514648438e+01
2.925970077514648438e+01
2.925970077514648438e+01
2.886470031738281250e+01
2.886470031738281250e+01
2.886470031738281250e+01
2.886470031738281250e+01
2.886470031738281250e+01
2.886470031738281250e+01
2.886470031738281250e+01
2.886470031738281250e+01
2.886470031738281250e+01
2.886470031738281250e+01
2.886470031738281250e+01
2.886470031738281250e+01
2.846969985961914062e+01
2.863391494750976562e+01
2.846969985961914062e+01
2.870101165771484375e+01
2.846969985961914062e+01
2.886470031738281250e+01
2.886470031738281250e+01
2.886470031738281250e+01
2.886470031738281250e+01
2.886470031738281250e+01
2.886470031738281250e+01
2.886470031738281250e+01
2.886470031738281250e+01
2.886470031738281250e+01
2.886470031738281250e+01
2.886470031738281250e+01
2.886470031738281250e+01
2.909969902038574219e+01
2.925970077514648438e+01
2.925970077514648438e+01
2.965469932556152344e+01
2.925970077514648438e+01
2.965469932556152344e+01
3.028621864318847656e+01
3.068144226074218750e+01
3.147170448303222656e+01
3.226197052001953125e+01
3.344713211059570312e+01
3.463239669799804688e+01
3.581755828857421875e+01
3.715940093994140625e+01
3.873929977416992188e+01
4.016315078735351562e+01
4.174341201782226562e+01
4.332357406616210938e+01
4.466400146484375000e+01
4.584899902343750000e+01
4.624399948120117188e+01
4.727442932128906250e+01
4.806469345092773438e+01
4.821889877319335938e+01
4.885515975952148438e+01
4.900880050659179688e+01
4.900880050659179688e+01
4.900880050659179688e+01
4.900880050659179688e+01
4.861389923095703125e+01
4.861389923095703125e+01
4.846206283569335938e+01
4.821889877319335938e+01
4.782389831542968750e+01
4.742890167236328125e+01
4.663890075683593750e+01
4.599951934814453125e+01
4.520925521850585938e+01
4.466400146484375000e+01
4.402379226684570312e+01
4.308409881591796875e+01
4.229410171508789062e+01
4.125814056396484375e+01
4.046787643432617188e+01
3.967767715454101562e+01
3.873929977416992188e+01
3.849218750000000000e+01
3.794929885864257812e+01
3.755429840087890625e+01
3.715940093994140625e+01
3.715940093994140625e+01
3.676440048217773438e+01
3.636940002441406250e+01
3.636940002441406250e+01
3.597439956665039062e+01
3.597439956665039062e+01
3.557939910888671875e+01
3.532938766479492188e+01
3.518439865112304688e+01
3.478950119018554688e+01
3.478950119018554688e+01
3.439450073242187500e+01
3.439450073242187500e+01
3.399950027465820312e+01
3.399950027465820312e+01
3.399950027465820312e+01
3.360449981689453125e+01
3.335185623168945312e+01
3.320949935913085938e+01
3.281449890136718750e+01
3.281449890136718750e+01
3.241960144042968750e+01
3.241960144042968750e+01
3.202460098266601562e+01
3.202460098266601562e+01
3.162960052490234375e+01
3.123460006713867188e+01
3.137432098388671875e+01
3.123460006713867188e+01
3.123460006713867188e+01
3.083959960937500000e+01
3.083959960937500000e+01
3.083959960937500000e+01
3.044459915161132812e+01
3.044459915161132812e+01
3.044459915161132812e+01
3.044459915161132812e+01
3.004969978332519531e+01
3.004969978332519531e+01
3.004969978332519531e+01
3.004969978332519531e+01
3.004969978332519531e+01
3.004969978332519531e+01
2.965469932556152344e+01
2.978994369506835938e+01
2.925970077514648438e+01
2.965469932556152344e+01
2.965469932556152344e+01
2.965469932556152344e+01
2.965469932556152344e+01
2.965469932556152344e+01
2.965469932556152344e+01
2.965469932556152344e+01
2.952182579040527344e+01
2.965469932556152344e+01
2.925970077514648438e+01
2.925970077514648438e+01
2.925970077514648438e+01
2.925970077514648438e+01
2.925970077514648438e+01
2.952367019653320312e+01
2.965469932556152344e+01
2.965469932556152344e+01
2.965469932556152344e+01
2.925970077514648438e+01
2.965469932556152344e+01
2.965469932556152344e+01
2.965469932556152344e+01
2.965469932556152344e+01
2.965469932556152344e+01
2.938809585571289062e+01
2.925970077514648438e+01
2.925970077514648438e+01
2.925970077514648438e+01
2.925970077514648438e+01
2.925970077514648438e+01
2.925970077514648438e+01
2.965469932556152344e+01
2.965469932556152344e+01
3.004969978332519531e+01
3.044459915161132812e+01
3.083959960937500000e+01
3.150436401367187500e+01
3.202460098266601562e+01
3.320949935913085938e+01
3.427005386352539062e+01
3.585021591186523438e+01
3.703548049926757812e+01
3.834429931640625000e+01
4.019580841064453125e+01
4.177606964111328125e+01
4.375123596191406250e+01
4.533139801025390625e+01
4.691156005859375000e+01
4.809682464599609375e+01
4.940380096435546875e+01
4.979880142211914062e+01
5.086251449584960938e+01
5.098379898071289062e+01
5.165294265747070312e+01
5.177370071411132812e+01
5.216870117187500000e+01
5.216870117187500000e+01
5.189340591430664062e+01
5.177370071411132812e+01
5.177370071411132812e+01
5.137870025634765625e+01
5.137870025634765625e+01
5.086541366577148438e+01
5.031192398071289062e+01
4.940380096435546875e+01
4.861389923095703125e+01
4.782389831542968750e+01
4.703390121459960938e+01
4.624399948120117188e+01
4.557054519653320312e+01
4.438528060913085938e+01
4.347909927368164062e+01
4.280485534667968750e+01
4.189920043945312500e+01
4.122442626953125000e+01
4.071419906616210938e+01
4.020449829101562500e+01
3.952930068969726562e+01
3.902012634277343750e+01
3.873929977416992188e+01
3.834429931640625000e+01
3.794929885864257812e+01
3.755429840087890625e+01
3.715940093994140625e+01
3.715940093994140625e+01
3.676440048217773438e+01
3.636940002441406250e+01
3.625759506225585938e+01
3.557939910888671875e+01
3.557939910888671875e+01
3.518439865112304688e+01
3.490022277832031250e+01
3.478950119018554688e+01
3.450472259521484375e+01
3.410945892333984375e+01
3.360449981689453125e+01
3.331893157958984375e+01
3.281449890136718750e+01
3.281449890136718750e+01
3.270588302612304688e+01
3.241960144042968750e+01
3.241960144042968750e+01
3.202460098266601562e+01
3.202460098266601562e+01
3.191727447509765625e+01
3.191753768920898438e+01
3.162960052490234375e+01
3.123460006713867188e+01
3.123460006713867188e+01
3.123460006713867188e+01
3.094534683227539062e+01
3.112911796569824219e+01
3.054981994628906250e+01
3.054955673217773438e+01
3.044459915161132812e+01
3.044459915161132812e+01
3.044459915161132812e+01
3.044459915161132812e+01
3.044459915161132812e+01
3.044459915161132812e+01
3.015278625488281250e+01
3.004969978332519531e+01
3.004969978332519531e+01
3.004969978332519531e+01
2.994764137268066406e+01
3.004969978332519531e+01
3.004969978332519531e+01
3.004969978332519531e+01
3.004969978332519531e+01
3.004969978332519531e+01
2.965469932556152344e+01
2.965469932556152344e+01
2.965469932556152344e+01
2.965469932556152344e+01
2.965469932556152344e+01
2.935886192321777344e+01
2.965469932556152344e+01
2.965469932556152344e+01
2.965469932556152344e+01
2.935780715942382812e+01
2.965469932556152344e+01
2.975228118896484375e+01
3.004969978332519531e+01
3.004969978332519531e+01
3.004969978332519531e+01
3.004969978332519531e+01
3.004969978332519531e+01
3.004969978332519531e+01
3.004969978332519531e+01
2.975017356872558594e+01
3.004969978332519531e+01
3.004969978332519531e+01
3.004969978332519531e+01
3.004969978332519531e+01
3.004969978332519531e+01
3.004969978332519531e+01
3.004969978332519531e+01
3.004969978332519531e+01
2.974780464172363281e+01
3.004969978332519531e+01
3.004969978332519531e+01
2.995738601684570312e+01
3.004969978332519531e+01
3.004969978332519531e+01
3.004969978332519531e+01
3.004969978332519531e+01
3.004969978332519531e+01
3.004969978332519531e+01
2.974517059326171875e+01
3.004969978332519531e+01
2.974464416503906250e+01
3.004969978332519531e+01
3.004969978332519531e+01
3.004969978332519531e+01
3.004969978332519531e+01
3.004969978332519531e+01
3.004969978332519531e+01
3.004969978332519531e+01
3.004969978332519531e+01
3.004969978332519531e+01
3.004969978332519531e+01
3.004969978332519531e+01
3.004969978332519531e+01
3.004969978332519531e+01
3.004969978332519531e+01
3.004969978332519531e+01
3.004969978332519531e+01
2.974016571044921875e+01
2.973990249633789062e+01
2.965469932556152344e+01
2.996502494812011719e+01
2.965469932556152344e+01
3.004969978332519531e+01
3.004969978332519531e+01
3.036099815368652344e+01
3.036126136779785156e+01
3.044459915161132812e+01
3.044459915161132812e+01
3.004969978332519531e+01
3.044459915161132812e+01
3.044459915161132812e+01
3.044459915161132812e+01
3.044459915161132812e+01
3.044459915161132812e+01
3.075861167907714844e+01
3.075887489318847656e+01
3.083959960937500000e+01
3.083959960937500000e+01
3.115466499328613281e+01
3.123460006713867188e+01
3.123460006713867188e+01
3.123460006713867188e+01
3.123460006713867188e+01
3.123460006713867188e+01
3.123460006713867188e+01
3.115650939941406250e+01
3.123460006713867188e+01
3.123460006713867188e+01
3.123460006713867188e+01
3.123460006713867188e+01
3.123460006713867188e+01
3.123460006713867188e+01
3.123460006713867188e+01
3.123460006713867188e+01
3.155387878417968750e+01
3.155414199829101562e+01
3.162960052490234375e+01
3.162960052490234375e+01
3.162960052490234375e+01
3.162960052490234375e+01
3.162960052490234375e+01
3.162960052490234375e+01
3.162960052490234375e+01
3.162960052490234375e+01
3.162960052490234375e+01
3.162960052490234375e+01
3.162960052490234375e+01
3.202460098266601562e+01
3.202460098266601562e+01
3.202460098266601562e+01
3.202460098266601562e+01
3.202460098266601562e+01
3.202460098266601562e+01
3.202460098266601562e+01
3.202460098266601562e+01
3.202460098266601562e+01
3.202460098266601562e+01
3.202460098266601562e+01
3.202460098266601562e+01
3.202460098266601562e+01
3.202460098266601562e+01
3.202460098266601562e+01
3.202460098266601562e+01
3.202460098266601562e+01
3.235177993774414062e+01
3.241960144042968750e+01
3.241960144042968750e+01
3.202460098266601562e+01
3.241960144042968750e+01
3.241960144042968750e+01
3.274827575683593750e+01
3.281449890136718750e+01
3.320949935913085938e+01
3.360449981689453125e+01
3.439450073242187500e+01
3.518439865112304688e+01
3.630474090576171875e+01
3.715940093994140625e+01
3.867516708374023438e+01
3.992419815063476562e+01
4.223051071166992188e+01
4.420567321777343750e+01
4.657583618164062500e+01
4.848826980590820312e+01
5.125361251831054688e+01
5.329141235351562500e+01
5.559946441650390625e+01
5.730350112915039062e+01
5.888339996337890625e+01
6.079706573486328125e+01
6.198232650756835938e+01
6.283319854736328125e+01
6.401820373535156250e+01
6.474801635742187500e+01
6.520310211181640625e+01
6.553844451904296875e+01
6.559809875488281250e+01
6.593397521972656250e+01
6.559809875488281250e+01
6.520310211181640625e+01
6.480819702148437500e+01
6.401820373535156250e+01
6.322819900512695312e+01
6.243830108642578125e+01
6.131058502197265625e+01
6.046329879760742188e+01
5.933515930175781250e+01
5.814989471435546875e+01
5.696472930908203125e+01
5.611849975585937500e+01
5.459430313110351562e+01
5.380403900146484375e+01
5.261887741088867188e+01
5.182861328125000000e+01
5.098379898071289062e+01
5.019380187988281250e+01
4.945792388916015625e+01
4.861389923095703125e+01
4.821889877319335938e+01
4.742890167236328125e+01
4.703390121459960938e+01
4.624399948120117188e+01
4.584899902343750000e+01
4.511127853393554688e+01
4.432101821899414062e+01
4.387409973144531250e+01
4.347909927368164062e+01
4.268909835815429688e+01
4.195014953613281250e+01
4.184849929809570312e+01
4.115963745117187500e+01
4.076437377929687500e+01
4.031919860839843750e+01
3.992419815063476562e+01
3.952930068969726562e+01
3.873929977416992188e+01
3.839315795898437500e+01
3.794929885864257812e+01
3.794929885864257812e+01
3.720745468139648438e+01
3.715940093994140625e+01
3.715940093994140625e+01
3.676440048217773438e+01
3.641641235351562500e+01
3.597439956665039062e+01
3.557939910888671875e+01
3.557939910888671875e+01
3.518439865112304688e+01
3.478950119018554688e+01
3.478950119018554688e+01
3.443967056274414062e+01
3.439450073242187500e+01
3.399950027465820312e+01
3.364888000488281250e+01
3.364861679077148438e+01
3.360449981689453125e+01
3.320949935913085938e+01
3.320949935913085938e+01
3.281449890136718750e+01
3.281449890136718750e+01
3.246212387084960938e+01
3.277223968505859375e+01
3.241960144042968750e+01
3.241960144042968750e+01
3.206608200073242188e+01
3.202460098266601562e+01
3.202460098266601562e+01
3.162960052490234375e+01
3.162960052490234375e+01
3.162960052490234375e+01
3.127450180053710938e+01
3.123460006713867188e+01
3.123460006713867188e+01
3.123460006713867188e+01
3.123460006713867188e+01
3.123460006713867188e+01
3.123460006713867188e+01
3.083959960937500000e+01
3.119680595397949219e+01
3.083959960937500000e+01
3.083959960937500000e+01
3.083959960937500000e+01
3.083959960937500000e+01
3.083959960937500000e+01
3.083959960937500000e+01
3.083959960937500000e+01
3.083959960937500000e+01
3.080417633056640625e+01
3.044459915161132812e+01
3.044459915161132812e+01
3.044459915161132812e+01
3.044459915161132812e+01
3.044459915161132812e+01
3.044459915161132812e+01
3.044459915161132812e+01
3.083959960937500000e+01
3.080654525756835938e+01
3.083959960937500000e+01
3.120207214355468750e+01
3.120233535766601562e+01
3.199259948730468750e+01
3.238786315917968750e+01
3.281449890136718750e+01
3.399950027465820312e+01
3.515346145629882812e+01
3.673371505737304688e+01
3.828345870971679688e+01
4.028904342651367188e+01
4.265920639038085938e+01
4.463436889648437500e+01
4.700453186035156250e+01
4.897970581054687500e+01
5.098379898071289062e+01
5.329654693603515625e+01
5.451028823852539062e+01
5.611849975585937500e+01
5.769850158691406250e+01
5.812092208862304688e+01
5.927840042114257812e+01
6.004140472412109375e+01
6.009512710571289062e+01
6.046329879760742188e+01
6.085829925537109375e+01
6.046329879760742188e+01
6.006840133666992188e+01
6.006840133666992188e+01
5.927840042114257812e+01
5.848839950561523438e+01
5.772311782836914062e+01
5.730350112915039062e+01
5.614259719848632812e+01
5.532860183715820312e+01
5.414360046386718750e+01
5.295869827270507812e+01
5.140174484252929688e+01
5.019380187988281250e+01
4.863641357421875000e+01
4.782389831542968750e+01
4.666089248657226562e+01
4.545399856567382812e+01
4.429046630859375000e+01
4.310530090332031250e+01
4.231503677368164062e+01
4.150419998168945312e+01
4.073461151123046875e+01
3.992419815063476562e+01
3.952930068969726562e+01
3.875892257690429688e+01
3.873929977416992188e+01
3.796839523315429688e+01
3.794929885864257812e+01
3.755429840087890625e+01
3.715940093994140625e+01
3.676440048217773438e+01
3.638717651367187500e+01
3.599191284179687500e+01
3.597439956665039062e+01
3.518439865112304688e+01
3.518439865112304688e+01
3.477304077148437500e+01
3.439450073242187500e+01
3.437856674194335938e+01
3.399950027465820312e+01
3.398409271240234375e+01
3.320949935913085938e+01
3.281449890136718750e+01
3.281449890136718750e+01
3.243395233154296875e+01
3.203869247436523438e+01
3.202460098266601562e+01
3.164316368103027344e+01
3.123460006713867188e+01
3.123460006713867188e+01
3.123460006713867188e+01
3.123460006713867188e+01
3.083959960937500000e+01
3.083959960937500000e+01
3.044459915161132812e+01
3.045605659484863281e+01
3.044459915161132812e+01
3.006062698364257812e+01
3.004969978332519531e+01
3.004969978332519531e+01
3.004969978332519531e+01
2.965469932556152344e+01
2.965469932556152344e+01
2.965469932556152344e+01
2.965469932556152344e+01
2.965469932556152344e+01
2.965469932556152344e+01
2.965469932556152344e+01
2.965469932556152344e+01
2.965469932556152344e+01
2.965469932556152344e+01
2.965469932556152344e+01
2.965469932556152344e+01
2.964798355102539062e+01
2.965469932556152344e+01
2.965469932556152344e+01
2.965469932556152344e+01
2.926536178588867188e+01
2.965469932556152344e+01
2.965469932556152344e+01
2.965469932556152344e+01
2.965469932556152344e+01
2.965469932556152344e+01
2.965061759948730469e+01
2.965469932556152344e+01
2.965469932556152344e+01
2.965140724182128906e+01
2.965469932556152344e+01
2.965469932556152344e+01
2.926220130920410156e+01
2.965469932556152344e+01
2.965469932556152344e+01
2.965469932556152344e+01
2.965469932556152344e+01
2.965588569641113281e+01
2.965469932556152344e+01
3.004969978332519531e+01
3.005009460449218750e+01
3.004969978332519531e+01
3.044459915161132812e+01
3.083959960937500000e+01
3.123525810241699219e+01
3.202460098266601562e+01
3.320949935913085938e+01
3.439595031738281250e+01
3.597439956665039062e+01
3.716137313842773438e+01
3.913653945922851562e+01
4.111170196533203125e+01
4.308686447143554688e+01
4.506202697753906250e+01
4.743219375610351562e+01
4.980235671997070312e+01
5.138251876831054688e+01
5.335778045654296875e+01
5.493794631958007812e+01
5.651810836791992188e+01
5.730350112915039062e+01
5.809339904785156250e+01
5.888879776000976562e+01
5.927840042114257812e+01
5.928432464599609375e+01
5.967340087890625000e+01
5.927840042114257812e+01
5.889011764526367188e+01
5.849538040161132812e+01
5.848839950561523438e+01
5.769099426269531250e+01
5.651350021362304688e+01
5.572349929809570312e+01
5.453860092163085938e+01
5.374860000610351562e+01
5.255487823486328125e+01
5.136961746215820312e+01
4.979880142211914062e+01
4.861389923095703125e+01
4.741902160644531250e+01
4.583885955810546875e+01
4.466400146484375000e+01
4.346843338012695312e+01
4.229410171508789062e+01
4.150419998168945312e+01
4.071419906616210938e+01
4.030747985839843750e+01
3.991222000122070312e+01
3.873929977416992188e+01
3.834429931640625000e+01
3.794929885864257812e+01
3.755429840087890625e+01
3.714609909057617188e+01
3.676440048217773438e+01
3.676440048217773438e+01
3.636940002441406250e+01
3.597439956665039062e+01
3.559401702880859375e+01
3.557939910888671875e+01
3.518439865112304688e+01
3.478950119018554688e+01
3.477383041381835938e+01
3.439450073242187500e+01
3.399950027465820312e+01
3.360449981689453125e+01
3.320949935913085938e+01
3.319251251220703125e+01
3.281449890136718750e+01
3.241960144042968750e+01
3.241960144042968750e+01
3.202460098266601562e+01
3.202460098266601562e+01
3.162960052490234375e+01
3.125343132019042969e+01
3.162960052490234375e+01
3.123460006713867188e+01
3.121497917175292969e+01
3.083959960937500000e+01
3.083959960937500000e+01
3.044459915161132812e+01
3.042392921447753906e+01
3.044459915161132812e+01
3.004969978332519531e+01
3.004969978332519531e+01
3.004969978332519531e+01
3.004969978332519531e+01
3.004969978332519531e+01
3.004969978332519531e+01
2.965469932556152344e+01
2.965469932556152344e+01
2.965469932556152344e+01
2.965469932556152344e+01
2.965469932556152344e+01
2.965469932556152344e+01
2.925970077514648438e+01
2.925970077514648438e+01
2.925970077514648438e+01
2.925970077514648438e+01
2.925970077514648438e+01
2.925970077514648438e+01
2.925970077514648438e+01
2.886470031738281250e+01
2.925970077514648438e+01
2.925970077514648438e+01
2.925970077514648438e+01
2.925970077514648438e+01
2.925970077514648438e+01
2.925970077514648438e+01
2.925970077514648438e+01
2.925970077514648438e+01
2.962612342834472656e+01
2.962586021423339844e+01
2.965469932556152344e+01
2.965469932556152344e+01
2.965469932556152344e+01
2.965469932556152344e+01
2.965469932556152344e+01
2.965469932556152344e+01
2.929038429260253906e+01
2.965469932556152344e+01
2.968590927124023438e+01
2.965469932556152344e+01
3.004969978332519531e+01
3.041260719299316406e+01
3.047686386108398438e+01
3.083959960937500000e+01
3.159680938720703125e+01
3.205765533447265625e+01
3.324281692504882812e+01
3.442808151245117188e+01
3.600824356079101562e+01
3.798340606689453125e+01
3.959803390502929688e+01
4.193382644653320312e+01
4.430389785766601562e+01
4.670922088623046875e+01
4.864931488037109375e+01
5.101947784423828125e+01
5.338964080810546875e+01
5.536480331420898438e+01
5.694497680664062500e+01
5.848839950561523438e+01
5.967340087890625000e+01
6.046329879760742188e+01
6.089583206176757812e+01
6.164830017089843750e+01
6.204330062866210938e+01
6.164830017089843750e+01
6.164830017089843750e+01
6.125329971313476562e+01
6.081918716430664062e+01
6.002902603149414062e+01
5.963376235961914062e+01
5.844849777221679688e+01
5.765833663940429688e+01
5.647307205200195312e+01
5.493360137939453125e+01
5.370765686035156250e+01
5.212748336791992188e+01
5.054731750488281250e+01
4.936205291748046875e+01
4.778189086914062500e+01
4.624399948120117188e+01
4.501646423339843750e+01
4.383130264282226562e+01
4.229410171508789062e+01
4.110919952392578125e+01
4.071419906616210938e+01
3.957314300537109375e+01
3.873929977416992188e+01
3.829991912841796875e+01
3.790465927124023438e+01
3.715940093994140625e+01
3.676440048217773438e+01
3.676440048217773438e+01
3.636940002441406250e+01
3.636940002441406250e+01
3.557939910888671875e+01
3.523088455200195312e+01
3.518439865112304688e+01
3.474248886108398438e+01
3.439450073242187500e+01
3.399950027465820312e+01
3.395169830322265625e+01
3.360449981689453125e+01
3.320949935913085938e+01
3.286309432983398438e+01
3.276565551757812500e+01
3.237047958374023438e+01
3.202460098266601562e+01
3.162960052490234375e+01
3.157969093322753906e+01
3.123460006713867188e+01
3.118416404724121094e+01
3.118390083312988281e+01
3.083959960937500000e+01
3.083959960937500000e+01
3.044459915161132812e+01
3.004969978332519531e+01
3.004969978332519531e+01
2.965469932556152344e+01
2.965469932556152344e+01
2.965469932556152344e+01
2.960162925720214844e+01
2.960136604309082031e+01
2.925970077514648438e+01
2.925970077514648438e+01
2.891882324218750000e+01
2.886470031738281250e+01
2.886470031738281250e+01
2.886470031738281250e+01
2.886470031738281250e+01
2.886470031738281250e+01
2.880899620056152344e+01
2.886470031738281250e+01
2.846969985961914062e+01
2.846969985961914062e+01
2.846969985961914062e+01
2.846969985961914062e+01
2.846969985961914062e+01
2.886470031738281250e+01
2.886470031738281250e+01
2.886470031738281250e+01
2.886470031738281250e+01
2.886470031738281250e+01
2.886470031738281250e+01
2.886470031738281250e+01
2.886470031738281250e+01
2.892435455322265625e+01
2.925970077514648438e+01
2.925970077514648438e+01
2.919925498962402344e+01
2.892540931701660156e+01
2.925970077514648438e+01
2.925970077514648438e+01
2.925970077514648438e+01
2.925970077514648438e+01
2.892672538757324219e+01
2.925970077514648438e+01
2.925970077514648438e+01
2.925970077514648438e+01
2.932277870178222656e+01
2.965469932556152344e+01
2.998609352111816406e+01
3.004969978332519531e+01
3.011381530761718750e+01
3.090399551391601562e+01
3.169425964355468750e+01
3.248450469970703125e+01
3.366968536376953125e+01
3.524984741210937500e+01
3.715940093994140625e+01
3.880527496337890625e+01
4.117543792724609375e+01
4.321710586547851562e+01
4.552076721191406250e+01
4.821889877319335938e+01
5.032838439941406250e+01
5.302625656127929688e+01
5.539640426635742188e+01
5.658158111572265625e+01
5.816174697875976562e+01
6.013699340820312500e+01
6.092717361450195312e+01
6.171743774414062500e+01
6.243830108642578125e+01
6.250794601440429688e+01
6.250820922851562500e+01
6.243830108642578125e+01
6.236784744262695312e+01
6.164830017089843750e+01
6.125329971313476562e+01
6.085829925537109375e+01
5.967340087890625000e+01
5.888339996337890625e+01
5.802138519287109375e+01
5.651350021362304688e+01
5.532860183715820312e+01
5.414360046386718750e+01
5.256370162963867188e+01
5.170034790039062500e+01
5.012018585205078125e+01
4.861389923095703125e+01
4.735475921630859375e+01
4.616959762573242188e+01
4.458933258056640625e+01
4.347909927368164062e+01
4.229410171508789062e+01
4.118465805053710938e+01
4.031919860839843750e+01
3.992419815063476562e+01
3.945305252075195312e+01
3.873929977416992188e+01
3.834429931640625000e+01
3.794929885864257812e+01
3.747701644897460938e+01
3.676440048217773438e+01
3.668657302856445312e+01
3.636940002441406250e+01
3.629104614257812500e+01
3.589578247070312500e+01
3.550051879882812500e+01
3.518439865112304688e+01
3.478950119018554688e+01
3.478950119018554688e+01
3.439450073242187500e+01
3.439450073242187500e+01
3.399950027465820312e+01
3.360449981689453125e+01
3.329048919677734375e+01
3.320949935913085938e+01
3.281449890136718750e+01
3.241960144042968750e+01
3.241960144042968750e+01
3.202460098266601562e+01
3.194203186035156250e+01
3.162960052490234375e+01
3.123460006713867188e+01
3.131795883178710938e+01
3.123460006713867188e+01
3.083959960937500000e+01
3.075545120239257812e+01
3.044459915161132812e+01
3.035994529724121094e+01
3.013461685180664062e+01
3.004969978332519531e+01
3.004969978332519531e+01
3.004969978332519531e+01
2.965469932556152344e+01
2.965469932556152344e+01
2.965469932556152344e+01
2.965469932556152344e+01
2.934674644470214844e+01
2.956739044189453125e+01
2.965469932556152344e+01
2.925970077514648438e+01
2.925970077514648438e+01
2.925970077514648438e+01
2.925970077514648438e+01
2.925970077514648438e+01
2.925970077514648438e+01
2.925970077514648438e+01
2.925970077514648438e+01
2.925970077514648438e+01
2.925970077514648438e+01
2.916922950744628906e+01
2.925970077514648438e+01
2.925970077514648438e+01
2.925970077514648438e+01
2.925970077514648438e+01
2.925970077514648438e+01
2.956264877319335938e+01
2.965469932556152344e+01
2.965469932556152344e+01
2.965469932556152344e+01
2.965469932556152344e+01
2.965469932556152344e+01
2.965469932556152344e+01
2.965469932556152344e+01
2.965469932556152344e+01
2.965469932556152344e+01
3.004969978332519531e+01
2.995475196838378906e+01
3.004969978332519531e+01
3.004969978332519531e+01
2.995396232604980469e+01
3.004969978332519531e+01
3.083959960937500000e+01
3.093612861633300781e+01
3.172639083862304688e+01
3.291155624389648438e+01
3.439450073242187500e+01
3.557939910888671875e+01
3.765214538574218750e+01
3.962738418579101562e+01
4.160256958007812500e+01
4.397270965576171875e+01
4.644177246093750000e+01
4.950296020507812500e+01
5.187312316894531250e+01
5.414360046386718750e+01
5.621845245361328125e+01
5.829383087158203125e+01
6.006840133666992188e+01
6.125329971313476562e+01
6.243830108642578125e+01
6.322819900512695312e+01
6.362319946289062500e+01
6.372499465942382812e+01
6.431114196777343750e+01
6.401820373535156250e+01
6.362319946289062500e+01
6.322819900512695312e+01
6.283319854736328125e+01
6.233492279052734375e+01
6.125329971313476562e+01
6.035942459106445312e+01
5.917423248291015625e+01
5.769850158691406250e+01
5.651350021362304688e+01
5.522364425659179688e+01
5.364340591430664062e+01
5.216870117187500000e+01
5.058879852294921875e+01
4.929779052734375000e+01
4.771762847900390625e+01
4.624399948120117188e+01
4.466400146484375000e+01
4.337203598022460938e+01
4.229410171508789062e+01
4.139661026000976562e+01
4.031919860839843750e+01
3.902618408203125000e+01
3.863092041015625000e+01
3.784065628051757812e+01
3.715940093994140625e+01
3.705023193359375000e+01
3.676440048217773438e+01
3.647909545898437500e+01
3.608435821533203125e+01
3.586417770385742188e+01
3.546891403198242188e+01
3.518439865112304688e+01
3.478950119018554688e+01
3.439450073242187500e+01
3.411104202270507812e+01
3.388769531250000000e+01
3.360449981689453125e+01
3.309716796875000000e+01
3.270193481445312500e+01
3.241960144042968750e+01
3.202460098266601562e+01
3.162960052490234375e+01
3.123460006713867188e+01
3.112068939208984375e+01
3.072542572021484375e+01
3.016410827636718750e+01
3.004969978332519531e+01
3.004969978332519531e+01
2.965469932556152344e+01
2.965469932556152344e+01
2.965469932556152344e+01
2.925970077514648438e+01
2.925970077514648438e+01
2.898124504089355469e+01
2.886470031738281250e+01
2.886470031738281250e+01
2.886470031738281250e+01
2.886470031738281250e+01
2.886470031738281250e+01
2.886470031738281250e+01
2.874631118774414062e+01
2.835107803344726562e+01
2.846969985961914062e+01
2.846969985961914062e+01
2.846969985961914062e+01
2.846969985961914062e+01
2.846969985961914062e+01
2.807480049133300781e+01
2.807480049133300781e+01
2.780055809020996094e+01
2.807480049133300781e+01
2.807480049133300781e+01
2.780134773254394531e+01
2.807480049133300781e+01
2.807480049133300781e+01
2.807480049133300781e+01
2.807480049133300781e+01
2.807480049133300781e+01
2.807480049133300781e+01
2.807480049133300781e+01
2.807480049133300781e+01
2.780371856689453125e+01
2.807480049133300781e+01
2.819921493530273438e+01
2.807480049133300781e+01
2.807480049133300781e+01
2.807480049133300781e+01
2.807480049133300781e+01
2.807480049133300781e+01
2.807480049133300781e+01
2.846969985961914062e+01
2.846969985961914062e+01
2.846969985961914062e+01
2.846969985961914062e+01
2.846969985961914062e+01
2.846969985961914062e+01
2.846969985961914062e+01
2.846969985961914062e+01
2.846969985961914062e+01
2.886470031738281250e+01
2.925970077514648438e+01
2.965469932556152344e+01
3.083959960937500000e+01
3.136431312561035156e+01
3.281449890136718750e+01
3.412974166870117188e+01
3.610490417480468750e+01
3.768506622314453125e+01
4.005522918701171875e+01
4.242539215087890625e+01
4.479555511474609375e+01
4.756071853637695312e+01
4.979880142211914062e+01
5.190604782104492188e+01
5.401382064819335938e+01
5.611849975585937500e+01
5.743663787841796875e+01
5.888339996337890625e+01
6.006840133666992188e+01
6.046329879760742188e+01
6.046329879760742188e+01
6.085829925537109375e+01
6.085829925537109375e+01
6.046329879760742188e+01
6.046329879760742188e+01
6.032782745361328125e+01
5.927840042114257812e+01
5.848839950561523438e+01
5.795713806152343750e+01
5.677193832397460938e+01
5.572349929809570312e+01
5.453860092163085938e+01
5.321635055541992188e+01
5.203108596801757812e+01
5.058879852294921875e+01
4.926565933227539062e+01
4.768549346923828125e+01
4.624399948120117188e+01
4.492006683349609375e+01
4.373490524291992188e+01
4.254964065551757812e+01
4.150419998168945312e+01
4.071419906616210938e+01
3.952930068969726562e+01
3.899378967285156250e+01
3.834429931640625000e+01
3.794929885864257812e+01
3.755429840087890625e+01
3.701783370971679688e+01
3.662257003784179688e+01
3.636940002441406250e+01
3.583204650878906250e+01
3.557939910888671875e+01
3.543651962280273438e+01
3.504129028320312500e+01
3.439450073242187500e+01
3.399950027465820312e+01
3.360449981689453125e+01
3.360449981689453125e+01
3.320949935913085938e+01
3.306477355957031250e+01
3.281449890136718750e+01
3.241960144042968750e+01
3.202460098266601562e+01
3.162960052490234375e+01
3.123460006713867188e+01
3.123460006713867188e+01
3.083959960937500000e+01
3.083959960937500000e+01
3.044459915161132812e+01
3.004969978332519531e+01
3.004969978332519531e+01
2.990181350708007812e+01
3.004969978332519531e+01
2.940811347961425781e+01
2.965469932556152344e+01
2.940863990783691406e+01
2.950549697875976562e+01
2.911023330688476562e+01
2.910997009277343750e+01
2.910970687866210938e+01
2.886470031738281250e+01
2.886470031738281250e+01
2.886470031738281250e+01
2.886470031738281250e+01
2.886470031738281250e+01
2.862127304077148438e+01
2.846969985961914062e+01
2.846969985961914062e+01
2.846969985961914062e+01
2.846969985961914062e+01
2.846969985961914062e+01
2.846969985961914062e+01
2.846969985961914062e+01
2.846969985961914062e+01
2.846969985961914062e+01
2.831553077697753906e+01
2.846969985961914062e+01
2.846969985961914062e+01
2.807480049133300781e+01
2.846969985961914062e+01
2.846969985961914062e+01
2.846969985961914062e+01
2.846969985961914062e+01
2.846969985961914062e+01
2.846969985961914062e+01
2.846969985961914062e+01
2.823186492919921875e+01
2.846969985961914062e+01
2.846969985961914062e+01
2.846969985961914062e+01
2.846969985961914062e+01
2.870627784729003906e+01
2.886470031738281250e+01
2.886470031738281250e+01
2.886470031738281250e+01
2.886470031738281250e+01
2.902443885803222656e+01
2.925970077514648438e+01
2.925970077514648438e+01
2.942022895812988281e+01
2.965469932556152344e+01
3.004969978332519531e+01
3.044459915161132812e+01
3.100118255615234375e+01
3.179144477844238281e+01
3.297660827636718750e+01
3.416187286376953125e+01
3.534703445434570312e+01
3.692729949951171875e+01
3.929746246337890625e+01
4.127262496948242188e+01
4.347909927368164062e+01
4.561795043945312500e+01
4.877807235717773438e+01
5.075328063964843750e+01
5.289318466186523438e+01
5.509860610961914062e+01
5.690850067138671875e+01
5.825893402099609375e+01
5.904919433593750000e+01
6.046329879760742188e+01
6.085829925537109375e+01
6.125329971313476562e+01
6.142015075683593750e+01
6.125329971313476562e+01
6.085829925537109375e+01
6.046329879760742188e+01
5.967340087890625000e+01
5.911023330688476562e+01
5.809339904785156250e+01
5.752980804443359375e+01
5.611849975585937500e+01
5.515938186645507812e+01
5.357915878295898438e+01
5.256370162963867188e+01
5.081378936767578125e+01
4.962852478027343750e+01
4.804836273193359375e+01
4.686309814453125000e+01
4.545399856567382812e+01
4.409771728515625000e+01
4.268909835815429688e+01
4.189920043945312500e+01
4.093708419799804688e+01
3.992419815063476562e+01
3.896165466308593750e+01
3.794929885864257812e+01
3.755429840087890625e+01
3.698596572875976562e+01
3.676440048217773438e+01
3.676440048217773438e+01
3.636940002441406250e+01
3.597439956665039062e+01
3.557939910888671875e+01
3.518439865112304688e+01
3.478950119018554688e+01
3.457004165649414062e+01
3.439450073242187500e+01
3.399950027465820312e+01
3.360449981689453125e+01
3.360449981689453125e+01
3.320949935913085938e+01
3.303237915039062500e+01
3.241960144042968750e+01
3.224195098876953125e+01
3.202460098266601562e+01
3.162960052490234375e+01
3.162960052490234375e+01
3.145089912414550781e+01
3.105563545227050781e+01
3.083959960937500000e+01
3.044459915161132812e+01
3.065984535217285156e+01
3.026462745666503906e+01
3.004969978332519531e+01
2.983524513244628906e+01
2.965469932556152344e+01
2.965469932556152344e+01
2.925970077514648438e+01
2.925970077514648438e+01
2.925970077514648438e+01
2.907757377624511719e+01
2.904708862304687500e+01
2.886470031738281250e+01
2.886470031738281250e+01
2.886470031738281250e+01
2.886470031738281250e+01
2.886470031738281250e+01
2.886470031738281250e+01
2.886470031738281250e+01
2.886470031738281250e+01
2.886470031738281250e+01
2.846969985961914062e+01
2.846969985961914062e+01
2.846969985961914062e+01
2.846969985961914062e+01
2.846969985961914062e+01
2.846969985961914062e+01
2.846969985961914062e+01
2.846969985961914062e+01
2.846969985961914062e+01
2.846969985961914062e+01
2.867704391479492188e+01
2.846969985961914062e+01
2.846969985961914062e+01
2.886470031738281250e+01
2.865840911865234375e+01
2.886470031738281250e+01
2.886470031738281250e+01
2.886470031738281250e+01
2.886470031738281250e+01
2.886470031738281250e+01
2.886470031738281250e+01
2.886470031738281250e+01
2.886470031738281250e+01
2.886470031738281250e+01
2.886470031738281250e+01
2.886470031738281250e+01
2.906782913208007812e+01
2.905683326721191406e+01
2.925970077514648438e+01
2.965469932556152344e+01
2.965469932556152344e+01
3.024283790588378906e+01
3.083959960937500000e+01
3.142831420898437500e+01
3.241960144042968750e+01
3.340373992919921875e+01
3.498395538330078125e+01
3.695916748046875000e+01
3.873436355590820312e+01
4.090949249267578125e+01
4.327965927124023438e+01
4.604482269287109375e+01
4.841498565673828125e+01
5.058649444580078125e+01
5.295692062377929688e+01
5.513047409057617188e+01
5.671063613891601562e+01
5.829080200195312500e+01
5.947606277465820312e+01
6.026627731323242188e+01
6.085829925537109375e+01
6.145175552368164062e+01
6.144958114624023438e+01
6.125329971313476562e+01
6.125329971313476562e+01
6.085829925537109375e+01
6.026358032226562500e+01
5.967340087890625000e+01
5.888339996337890625e+01
5.789288711547851562e+01
5.671432495117187500e+01
5.572349929809570312e+01
5.453860092163085938e+01
5.315208435058593750e+01
5.196681976318359375e+01
5.058879852294921875e+01
4.880644607543945312e+01
4.762123107910156250e+01
4.624399948120117188e+01
4.485580444335937500e+01
4.367064285278320312e+01
4.229410171508789062e+01
4.110919952392578125e+01
4.031919860839843750e+01
3.952930068969726562e+01
3.853452301025390625e+01
3.794929885864257812e+01
3.755429840087890625e+01
3.695383453369140625e+01
3.676440048217773438e+01
3.618049240112304688e+01
3.597439956665039062e+01
3.557939910888671875e+01
3.518439865112304688e+01
3.497730636596679688e+01
3.458209228515625000e+01
3.439450073242187500e+01
3.399950027465820312e+01
3.360449981689453125e+01
3.341796493530273438e+01
3.320949935913085938e+01
3.281449890136718750e+01
3.262879943847656250e+01
3.241960144042968750e+01
3.202460098266601562e+01
3.202460098266601562e+01
3.162960052490234375e+01
3.141902923583984375e+01
3.123460006713867188e+01
3.102350234985351562e+01
3.105096054077148438e+01
3.083959960937500000e+01
3.083959960937500000e+01
3.044459915161132812e+01
3.044459915161132812e+01
3.044459915161132812e+01
3.023171424865722656e+01
3.004969978332519531e+01
3.004969978332519531e+01
3.004969978332519531e+01
2.965469932556152344e+01
2.965469932556152344e+01
2.965469932556152344e+01
2.925970077514648438e+01
2.943965339660644531e+01
2.925970077514648438e+01
2.925970077514648438e+01
2.925970077514648438e+01
2.925970077514648438e+01
2.925970077514648438e+01
2.925970077514648438e+01
2.925970077514648438e+01
2.925970077514648438e+01
2.925970077514648438e+01
2.925970077514648438e+01
2.925970077514648438e+01
2.925970077514648438e+01
2.908317184448242188e+01
2.925970077514648438e+01
2.925970077514648438e+01
2.925970077514648438e+01
2.925970077514648438e+01
2.925970077514648438e+01
2.925970077514648438e+01
2.925970077514648438e+01
2.925970077514648438e+01
2.908554267883300781e+01
2.925970077514648438e+01
2.925970077514648438e+01
2.925970077514648438e+01
2.965469932556152344e+01
2.965469932556152344e+01
2.965469932556152344e+01
2.965469932556152344e+01
2.965469932556152344e+01
2.965469932556152344e+01
2.982622528076171875e+01
3.004969978332519531e+01
3.004969978332519531e+01
3.004969978332519531e+01
3.044459915161132812e+01
3.044459915161132812e+01
3.083959960937500000e+01
3.145991897583007812e+01
3.225018310546875000e+01
3.320949935913085938e+01
3.462060928344726562e+01
3.620077133178710938e+01
3.778093719482421875e+01
4.015110015869140625e+01
4.212630462646484375e+01
4.449642562866210938e+01
4.686658859252929688e+01
4.946470642089843750e+01
5.200191497802734375e+01
5.437207794189453125e+01
5.634724426269531250e+01
5.792744827270507812e+01
5.967340087890625000e+01
6.085829925537109375e+01
6.148309707641601562e+01
6.227336120605468750e+01
6.266856384277343750e+01
6.283319854736328125e+01
6.283319854736328125e+01
6.260214614868164062e+01
6.204330062866210938e+01
6.125329971313476562e+01
6.085829925537109375e+01
6.006840133666992188e+01
5.888339996337890625e+01
5.786076354980468750e+01
5.667554473876953125e+01
5.532860183715820312e+01
5.391011428833007812e+01
5.256370162963867188e+01
5.137870025634765625e+01
4.995952606201171875e+01
4.837936401367187500e+01
4.719409942626953125e+01
4.584899902343750000e+01
4.442867279052734375e+01
4.308409881591796875e+01
4.166334533691406250e+01
4.110919952392578125e+01
3.992419815063476562e+01
3.929265594482421875e+01
3.850239181518554688e+01
3.794929885864257812e+01
3.755429840087890625e+01
3.755429840087890625e+01
3.715940093994140625e+01
3.692117691040039062e+01
3.636940002441406250e+01
3.636940002441406250e+01
3.597439956665039062e+01
3.557939910888671875e+01
3.518439865112304688e+01
3.478950119018554688e+01
3.439450073242187500e+01
3.439450073242187500e+01
3.360449981689453125e+01
3.360449981689453125e+01
3.296837997436523438e+01
3.281449890136718750e+01
3.241960144042968750e+01
3.202460098266601562e+01
3.187177467346191406e+01
3.162960052490234375e+01
3.162960052490234375e+01
3.123460006713867188e+01
3.123460006713867188e+01
3.123460006713867188e+01
3.083959960937500000e+01
3.083959960937500000e+01
3.083959960937500000e+01
3.059505462646484375e+01
3.044459915161132812e+01
3.044459915161132812e+01
3.044459915161132812e+01
3.004969978332519531e+01
3.004969978332519531e+01
3.004969978332519531e+01
2.990108871459960938e+01
2.965469932556152344e+01
2.965469932556152344e+01
2.965469932556152344e+01
2.940725708007812500e+01
2.925970077514648438e+01
2.925970077514648438e+01
2.925970077514648438e+01
2.925970077514648438e+01
2.925970077514648438e+01
2.901067733764648438e+01
2.886470031738281250e+01
2.886470031738281250e+01
2.886470031738281250e+01
2.886470031738281250e+01
2.886470031738281250e+01
2.886470031738281250e+01
2.900883293151855469e+01
2.886470031738281250e+01
2.886470031738281250e+01
2.911635780334472656e+01
2.925970077514648438e+01
2.900751686096191406e+01
2.925970077514648438e+01
2.925970077514648438e+01
2.925970077514648438e+01
2.951293754577636719e+01
2.925970077514648438e+01
2.965469932556152344e+01
2.965469932556152344e+01
2.965469932556152344e+01
2.965469932556152344e+01
2.965469932556152344e+01
2.965469932556152344e+01
3.004969978332519531e+01
3.004969978332519531e+01
3.004969978332519531e+01
2.965469932556152344e+01
3.004969978332519531e+01
3.004969978332519531e+01
3.044459915161132812e+01
3.044459915161132812e+01
3.109705162048339844e+01
3.202460098266601562e+01
3.320949935913085938e+01
3.425774002075195312e+01
3.583790588378906250e+01
3.781306838989257812e+01
3.939332962036132812e+01
4.136849594116210938e+01
4.439315032958984375e+01
4.689871978759765625e+01
4.926888656616210938e+01
5.163904953002929688e+01
5.414360046386718750e+01
5.637937545776367188e+01
5.835453796386718750e+01
5.967340087890625000e+01
6.111996459960937500e+01
6.230522918701171875e+01
6.283319854736328125e+01
6.349065399169921875e+01
6.362319946289062500e+01
6.362319946289062500e+01
6.322819900512695312e+01
6.296469116210937500e+01
6.217452621459960938e+01
6.164830017089843750e+01
6.098900222778320312e+01
6.006840133666992188e+01
5.888339996337890625e+01
5.769850158691406250e+01
5.651350021362304688e+01
5.506298446655273438e+01
5.414360046386718750e+01
5.282141494750976562e+01
5.150729370117187500e+01
4.953213119506835938e+01
4.795196533203125000e+01
4.676670455932617188e+01
4.518653869628906250e+01
4.400134658813476562e+01
4.268909835815429688e+01
4.163095092773437500e+01
4.071419906616210938e+01
3.938671493530273438e+01
3.873929977416992188e+01
3.807499694824218750e+01
3.755429840087890625e+01
3.688956832885742188e+01
3.676440048217773438e+01
3.636940002441406250e+01
3.609878158569335938e+01
3.570351791381835938e+01
3.557939910888671875e+01
3.491305923461914062e+01
3.451782608032226562e+01
3.412256240844726562e+01
3.372729873657226562e+01
3.348196411132812500e+01
3.293677139282226562e+01
3.254158020019531250e+01
3.241960144042968750e+01
3.202460098266601562e+01
3.175082015991210938e+01
3.162960052490234375e+01
3.162960052490234375e+01
3.096002960205078125e+01
3.083959960937500000e+01
3.083959960937500000e+01
3.044459915161132812e+01
3.032525444030761719e+01
3.004969978332519531e+01
3.004969978332519531e+01
2.977328491210937500e+01
2.965469932556152344e+01
2.965469932556152344e+01
2.925970077514648438e+01
2.898223114013671875e+01
2.886470031738281250e+01
2.846969985961914062e+01
2.858644104003906250e+01
2.846969985961914062e+01
2.846969985961914062e+01
2.846969985961914062e+01
2.846969985961914062e+01
2.846969985961914062e+01
2.846969985961914062e+01
2.818966865539550781e+01
2.807480049133300781e+01
2.807480049133300781e+01
2.807480049133300781e+01
2.807480049133300781e+01
2.796121788024902344e+01
2.807480049133300781e+01
2.818782615661621094e+01
2.807480049133300781e+01
2.807480049133300781e+01
2.807480049133300781e+01
2.807480049133300781e+01
2.818651008605957031e+01
2.807480049133300781e+01
2.807480049133300781e+01
2.807480049133300781e+01
2.807480049133300781e+01
2.818519210815429688e+01
2.807480049133300781e+01
2.807480049133300781e+01
2.807480049133300781e+01
2.807480049133300781e+01
2.836062431335449219e+01
2.846969985961914062e+01
2.846969985961914062e+01
2.857801437377929688e+01
2.886470031738281250e+01
2.886470031738281250e+01
2.886470031738281250e+01
2.886470031738281250e+01
2.886470031738281250e+01
2.875796699523925781e+01
2.886470031738281250e+01
2.886470031738281250e+01
2.886470031738281250e+01
2.897038078308105469e+01
2.886470031738281250e+01
2.886470031738281250e+01
2.965469932556152344e+01
3.044459915161132812e+01
3.083959960937500000e+01
3.231549835205078125e+01
3.389566421508789062e+01
3.587082672119140625e+01
3.784598922729492188e+01
4.021615219116210938e+01
4.258631515502929688e+01
4.524896240234375000e+01
4.772164535522460938e+01
4.969680786132812500e+01
5.236024093627929688e+01
5.414360046386718750e+01
5.562232208251953125e+01
5.720256042480468750e+01
5.878272247314453125e+01
5.888339996337890625e+01
5.967340087890625000e+01
6.006840133666992188e+01
6.006840133666992188e+01
5.996903991699218750e+01
5.967340087890625000e+01
5.927840042114257812e+01
5.848839950561523438e+01
5.779677963256835938e+01
5.661154174804687500e+01
5.582127761840820312e+01
5.493360137939453125e+01
5.384585189819335938e+01
5.256370162963867188e+01
5.177370071411132812e+01
5.038672256469726562e+01
4.900880050659179688e+01
4.782389831542968750e+01
4.633964920043945312e+01
4.475940704345703125e+01
4.357424545288085938e+01
4.238898086547851562e+01
4.120381927490234375e+01
4.041355514526367188e+01
3.952930068969726562e+01
3.843812942504882812e+01
3.794929885864257812e+01
3.755429840087890625e+01
3.685743713378906250e+01
3.676440048217773438e+01
3.636940002441406250e+01
3.597439956665039062e+01
3.557939910888671875e+01
3.518439865112304688e+01
3.478950119018554688e+01
3.448569488525390625e+01
3.399950027465820312e+01
3.360449981689453125e+01
3.360449981689453125e+01
3.360449981689453125e+01
3.320949935913085938e+01
3.281449890136718750e+01
3.241960144042968750e+01
3.233051300048828125e+01
3.202460098266601562e+01
3.162960052490234375e+01
3.162960052490234375e+01
3.123460006713867188e+01
3.123460006713867188e+01
3.083959960937500000e+01
3.044459915161132812e+01
3.083959960937500000e+01
3.044459915161132812e+01
3.013613128662109375e+01
3.004969978332519531e+01
2.974062728881835938e+01
2.965469932556152344e+01
2.925970077514648438e+01
2.925970077514648438e+01
2.925970077514648438e+01
2.917509078979492188e+01
2.925970077514648438e+01
2.886470031738281250e+01
2.886470031738281250e+01
2.855325698852539062e+01
2.846969985961914062e+01
2.846969985961914062e+01
2.846969985961914062e+01
2.815728187561035156e+01
2.846969985961914062e+01
2.846969985961914062e+01
2.846969985961914062e+01
2.846969985961914062e+01
2.846969985961914062e+01
2.846969985961914062e+01
2.846969985961914062e+01
2.846969985961914062e+01
2.846969985961914062e+01
2.846969985961914062e+01
2.846969985961914062e+01
2.846969985961914062e+01
2.846969985961914062e+01
2.846969985961914062e+01
2.846969985961914062e+01
2.846969985961914062e+01
2.846969985961914062e+01
2.846969985961914062e+01
2.846969985961914062e+01
2.846969985961914062e+01
2.846969985961914062e+01
2.886470031738281250e+01
2.886470031738281250e+01
2.886470031738281250e+01
2.886470031738281250e+01
2.886470031738281250e+01
2.886470031738281250e+01
2.886470031738281250e+01
2.886470031738281250e+01
2.886470031738281250e+01
2.886470031738281250e+01
2.886470031738281250e+01
2.893851089477539062e+01
2.925970077514648438e+01
2.925970077514648438e+01
2.958167839050292969e+01
2.965469932556152344e+01
2.965469932556152344e+01
3.044459915161132812e+01
3.116263198852539062e+01
3.195289611816406250e+01
3.320949935913085938e+01
3.478950119018554688e+01
3.629848480224609375e+01
3.827364730834960938e+01
4.031919860839843750e+01
4.261897659301757812e+01
4.491927719116210938e+01
4.696430206298828125e+01
4.966013336181640625e+01
5.170462799072265625e+01
5.367980957031250000e+01
5.565497207641601562e+01
5.723521804809570312e+01
5.809339904785156250e+01
5.921064758300781250e+01
6.006840133666992188e+01
6.046329879760742188e+01
6.046329879760742188e+01
6.046329879760742188e+01
6.013481903076171875e+01
5.967340087890625000e+01
5.927840042114257812e+01
5.848839950561523438e+01
5.769850158691406250e+01
5.690850067138671875e+01
5.578835678100585938e+01
5.460319137573242188e+01
5.341801452636718750e+01
5.223276519775390625e+01
5.104758834838867188e+01
4.986233901977539062e+01
4.828217697143554688e+01
4.703390121459960938e+01
4.584899902343750000e+01
4.466400146484375000e+01
4.275132369995117188e+01
4.189920043945312500e+01
4.077589797973632812e+01
3.998563385009765625e+01
3.919546890258789062e+01
3.840520477294921875e+01
3.761494445800781250e+01
3.715940093994140625e+01
3.676440048217773438e+01
3.676440048217773438e+01
3.642898941040039062e+01
3.636940002441406250e+01
3.557939910888671875e+01
3.524319839477539062e+01
3.518439865112304688e+01
3.478950119018554688e+01
3.439450073242187500e+01
3.405724716186523438e+01
3.399950027465820312e+01
3.360449981689453125e+01
3.320949935913085938e+01
3.281449890136718750e+01
3.247601318359375000e+01
3.281449890136718750e+01
3.241960144042968750e+01
3.202460098266601562e+01
3.168497467041015625e+01
3.162960052490234375e+01
3.128944778442382812e+01
3.123460006713867188e+01
3.083959960937500000e+01
3.083959960937500000e+01
3.083959960937500000e+01
3.049813079833984375e+01
3.044459915161132812e+01
3.044459915161132812e+01
3.044459915161132812e+01
3.004969978332519531e+01
3.004969978332519531e+01
3.004969978332519531e+01
2.965469932556152344e+01
2.965469932556152344e+01
2.925970077514648438e+01
2.925970077514648438e+01
2.925970077514648438e+01
2.886470031738281250e+01
2.891480827331542969e+01
2.886470031738281250e+01
2.886470031738281250e+01
2.886470031738281250e+01
2.886470031738281250e+01
2.886470031738281250e+01
2.886470031738281250e+01
2.846969985961914062e+01
2.846969985961914062e+01
2.846969985961914062e+01
2.846969985961914062e+01
2.846969985961914062e+01
2.881775283813476562e+01
2.886470031738281250e+01
2.886470031738281250e+01
2.886470031738281250e+01
2.886470031738281250e+01
2.886470031738281250e+01
2.886470031738281250e+01
2.886470031738281250e+01
2.886470031738281250e+01
2.886470031738281250e+01
2.886470031738281250e+01
2.886470031738281250e+01
2.886470031738281250e+01
2.886470031738281250e+01
2.886470031738281250e+01
2.886470031738281250e+01
2.886470031738281250e+01
2.886470031738281250e+01
2.890690612792968750e+01
2.886470031738281250e+01
2.886470031738281250e+01
2.921828460693359375e+01
2.925970077514648438e+01
2.925970077514648438e+01
2.925970077514648438e+01
2.965469932556152344e+01
2.965469932556152344e+01
3.040477371215820312e+01
3.083959960937500000e+01
3.162960052490234375e+01
3.281449890136718750e+01
3.399950027465820312e+01
3.554088211059570312e+01
3.712114334106445312e+01
3.945331573486328125e+01
4.146647262573242188e+01
4.344163513183593750e+01
4.616959762573242188e+01
4.857696151733398438e+01
5.091044998168945312e+01
5.292228698730468750e+01
5.489745330810546875e+01
5.687261581420898438e+01
5.809339904785156250e+01
5.924304199218750000e+01
6.003330612182617188e+01
6.082346725463867188e+01
6.085829925537109375e+01
6.089260482788085938e+01
6.125329971313476562e+01
6.089207839965820312e+01
6.046329879760742188e+01
5.970664978027343750e+01
5.927840042114257812e+01
5.812612533569335938e+01
5.769850158691406250e+01
5.654569625854492188e+01
5.536052703857421875e+01
5.417527008056640625e+01
5.299010848999023438e+01
5.140984344482421875e+01
5.019380187988281250e+01
4.864450836181640625e+01
4.745925521850585938e+01
4.587908935546875000e+01
4.466400146484375000e+01
4.347909927368164062e+01
4.195779418945312500e+01
4.113823699951171875e+01
4.031919860839843750e+01
3.952930068969726562e+01
3.876754760742187500e+01
3.794929885864257812e+01
3.755429840087890625e+01
3.715940093994140625e+01
3.679159545898437500e+01
3.636940002441406250e+01
3.634273147583007812e+01
3.597439956665039062e+01
3.557939910888671875e+01
3.518439865112304688e+01
3.515879440307617188e+01
3.439450073242187500e+01
3.402458572387695312e+01
3.399950027465820312e+01
3.360449981689453125e+01
3.323379516601562500e+01
3.283853149414062500e+01
3.283826828002929688e+01
3.244309997558593750e+01
3.204784393310546875e+01
3.202460098266601562e+01
3.162960052490234375e+01
3.162960052490234375e+01
3.160741043090820312e+01
3.123460006713867188e+01
3.123460006713867188e+01
3.083959960937500000e+01
3.046573638916015625e+01
3.044459915161132812e+01
3.044459915161132812e+01
3.044459915161132812e+01
3.004969978332519531e+01
3.004969978332519531e+01
3.004969978332519531e+01
2.965469932556152344e+01
2.965469932556152344e+01
2.965469932556152344e+01
2.965469932556152344e+01
2.925970077514648438e+01
2.925970077514648438e+01
2.925970077514648438e+01
2.925970077514648438e+01
2.925970077514648438e+01
2.925970077514648438e+01
2.925970077514648438e+01
2.925970077514648438e+01
2.925970077514648438e+01
2.925970077514648438e+01
2.925970077514648438e+01
2.925970077514648438e+01
2.925970077514648438e+01
2.927451515197753906e+01
2.925970077514648438e+01
2.925970077514648438e+01
2.925970077514648438e+01
2.925970077514648438e+01
2.925970077514648438e+01
2.925970077514648438e+01
2.925970077514648438e+01
2.925970077514648438e+01
2.925970077514648438e+01
2.925970077514648438e+01
2.925970077514648438e+01
2.925970077514648438e+01
2.927109146118164062e+01
2.925970077514648438e+01
2.925970077514648438e+01
2.925970077514648438e+01
2.925970077514648438e+01
2.925970077514648438e+01
2.925970077514648438e+01
2.965469932556152344e+01
2.965469932556152344e+01
3.004969978332519531e+01
3.004969978332519531e+01
3.004969978332519531e+01
3.004969978332519531e+01
3.005766487121582031e+01
3.044459915161132812e+01
3.123460006713867188e+01
3.162960052490234375e+01
3.202460098266601562e+01
3.280784988403320312e+01
3.399311447143554688e+01
3.518439865112304688e+01
3.675854110717773438e+01
3.912310791015625000e+01
4.071419906616210938e+01
4.308409881591796875e+01
4.544919204711914062e+01
4.821435546875000000e+01
5.058451843261718750e+01
5.295468521118164062e+01
5.532109451293945312e+01
5.690850067138671875e+01
5.888339996337890625e+01
6.006840133666992188e+01
6.086100006103515625e+01
6.204330062866210938e+01
6.243830108642578125e+01
6.243830108642578125e+01
6.283319854736328125e+01
6.243830108642578125e+01
6.204330062866210938e+01
6.164830017089843750e+01
6.125329971313476562e+01
6.006905746459960938e+01
5.927846527099609375e+01
5.848839950561523438e+01
5.730350112915039062e+01
5.611777496337890625e+01
5.493261337280273438e+01
5.374734878540039062e+01
5.216870117187500000e+01
5.098379898071289062e+01
4.979676055908203125e+01
4.821659469604492188e+01
4.703133392333984375e+01
4.545116806030273438e+01
4.426900100708007812e+01
4.308074188232421875e+01
4.189558029174804688e+01
4.071419906616210938e+01
3.992419815063476562e+01
3.913430023193359375e+01
3.834429931640625000e+01
3.794929885864257812e+01
3.754909896850585938e+01
3.715940093994140625e+01
3.676440048217773438e+01
3.636940002441406250e+01
3.597439956665039062e+01
3.557939910888671875e+01
3.557939910888671875e+01
3.518439865112304688e+01
3.518439865112304688e+01
3.478192901611328125e+01
3.439450073242187500e+01
3.399950027465820312e+01
3.399113845825195312e+01
3.360449981689453125e+01
3.320949935913085938e+01
3.281449890136718750e+01
3.241960144042968750e+01
3.241960144042968750e+01
3.201465606689453125e+01
3.162960052490234375e+01
3.123460006713867188e+01
3.123460006713867188e+01
3.122360420227050781e+01
3.083959960937500000e+01
3.083959960937500000e+01
3.082781410217285156e+01
3.044459915161132812e+01
3.006200981140136719e+01
3.004969978332519531e+01
3.004969978332519531e+01
2.966780281066894531e+01
2.966806602478027344e+01
3.003606986999511719e+01
2.965469932556152344e+01
2.965469932556152344e+01
2.965469932556152344e+01
2.925970077514648438e+01
2.925970077514648438e+01
2.924448966979980469e+01
2.925970077514648438e+01
2.888043594360351562e+01
2.925970077514648438e+01
2.925970077514648438e+01
2.925970077514648438e+01
2.925970077514648438e+01
2.925970077514648438e+01
2.925970077514648438e+01
2.925970077514648438e+01
2.924185562133789062e+01
2.925970077514648438e+01
2.925970077514648438e+01
2.925970077514648438e+01
2.924080276489257812e+01
2.925970077514648438e+01
2.925970077514648438e+01
2.925970077514648438e+01
2.925970077514648438e+01
2.925970077514648438e+01
2.925970077514648438e+01
2.888544082641601562e+01
2.925970077514648438e+01
2.925970077514648438e+01
2.925970077514648438e+01
2.925970077514648438e+01
2.925970077514648438e+01
2.925970077514648438e+01
2.965469932556152344e+01
2.965469932556152344e+01
2.965469932556152344e+01
2.965469932556152344e+01
2.965469932556152344e+01
2.965469932556152344e+01
2.965469932556152344e+01
2.965469932556152344e+01
2.965469932556152344e+01
2.965469932556152344e+01
3.004969978332519531e+01
3.004969978332519531e+01
3.044459915161132812e+01
3.123460006713867188e+01
3.202460098266601562e+01
3.281449890136718750e+01
3.439450073242187500e+01
3.600146102905273438e+01
3.755429840087890625e+01
3.958446884155273438e+01
4.192704391479492188e+01
4.429711532592773438e+01
4.666727828979492188e+01
4.903744125366210938e+01
5.143651199340820312e+01
5.377776718139648438e+01
5.535802459716796875e+01
5.693819427490234375e+01
5.891336059570312500e+01
6.006840133666992188e+01
