4.097744369506835938e+01
4.005519866943359375e+01
3.913430023193359375e+01
3.821175384521484375e+01
3.781649017333984375e+01
3.742126083374023438e+01
3.676440048217773438e+01
3.636940002441406250e+01
3.623553848266601562e+01
3.557939910888671875e+01
3.544501113891601562e+01
3.504978179931640625e+01
3.478950119018554688e+01
3.439450073242187500e+01
3.399950027465820312e+01
3.320949935913085938e+01
3.307353210449218750e+01
3.241960144042968750e+01
3.188810539245605469e+01
3.162960052490234375e+01
3.123460006713867188e+01
3.123460006713867188e+01
3.083959960937500000e+01
3.083959960937500000e+01
3.044459915161132812e+01
3.044459915161132812e+01
3.004969978332519531e+01
3.004969978332519531e+01
2.991057014465332031e+01
2.925970077514648438e+01
2.925970077514648438e+01
2.965469932556152344e+01
2.939988327026367188e+01
2.965469932556152344e+01
2.925970077514648438e+01
2.925970077514648438e+01
2.925970077514648438e+01
2.886470031738281250e+01
2.886470031738281250e+01
2.846969985961914062e+01
2.886470031738281250e+01
2.886470031738281250e+01
2.886470031738281250e+01
2.886470031738281250e+01
2.846969985961914062e+01
2.886470031738281250e+01
2.886470031738281250e+01
2.861383247375488281e+01
2.886470031738281250e+01
2.886470031738281250e+01
2.886470031738281250e+01
2.886470031738281250e+01
2.901015090942382812e+01
2.911398696899414062e+01
2.925970077514648438e+01
2.925970077514648438e+01
2.901120376586914062e+01
2.901146697998046875e+01
2.911266899108886719e+01
2.886470031738281250e+01
2.886470031738281250e+01
2.886470031738281250e+01
2.911161613464355469e+01
2.925970077514648438e+01
2.980331039428710938e+01
3.044459915161132812e+01
3.098873710632324219e+01
3.217399978637695312e+01
3.335916519165039062e+01
3.454442596435546875e+01
3.612459182739257812e+01
3.794929885864257812e+01
3.943569564819335938e+01
4.110919952392578125e+01
4.323534393310546875e+01
4.496701431274414062e+01
4.703390121459960938e+01
4.837093353271484375e+01
4.979880142211914062e+01
5.113632202148437500e+01
5.216870117187500000e+01
5.295869827270507812e+01
5.374860000610351562e+01
5.414360046386718750e+01
5.414360046386718750e+01
5.453860092163085938e+01
5.493360137939453125e+01
5.453860092163085938e+01
5.453860092163085938e+01
5.453860092163085938e+01
5.374860000610351562e+01
5.359291839599609375e+01
5.335369873046875000e+01
5.256370162963867188e+01
5.201218795776367188e+01
5.098379898071289062e+01
4.964176177978515625e+01
4.845659637451171875e+01
4.687633514404296875e+01
4.569116973876953125e+01
4.450590896606445312e+01
4.292574310302734375e+01
4.174058151245117188e+01
4.031919860839843750e+01
3.937015533447265625e+01
3.857989120483398438e+01
3.778962707519531250e+01
3.731929397583007812e+01
3.676440048217773438e+01
3.652986145019531250e+01
3.620867538452148438e+01
3.581341171264648438e+01
3.557939910888671875e+01
3.518439865112304688e+01
3.478950119018554688e+01
3.439450073242187500e+01
3.376680755615234375e+01
3.360449981689453125e+01
3.304666519165039062e+01
3.241960144042968750e+01
3.241960144042968750e+01
3.202460098266601562e+01
3.162960052490234375e+01
3.123460006713867188e+01
3.107018661499023438e+01
3.083959960937500000e+01
3.060954093933105469e+01
3.044459915161132812e+01
3.044459915161132812e+01
3.044459915161132812e+01
3.004969978332519531e+01
2.982095718383789062e+01
2.965469932556152344e+01
2.965469932556152344e+01
2.925970077514648438e+01
2.925970077514648438e+01
2.925970077514648438e+01
2.925970077514648438e+01
2.925970077514648438e+01
2.903306388854980469e+01
2.886470031738281250e+01
2.886470031738281250e+01
2.886470031738281250e+01
2.886470031738281250e+01
2.863938140869140625e+01
2.846969985961914062e+01
2.869449234008789062e+01
2.846969985961914062e+01
2.886470031738281250e+01
2.886470031738281250e+01
2.869343948364257812e+01
2.886470031738281250e+01
2.864148712158203125e+01
2.869264793395996094e+01
2.869238471984863281e+01
2.869212150573730469e+01
2.846969985961914062e+01
2.886470031738281250e+01
2.869133186340332031e+01
2.886470031738281250e+01
2.886470031738281250e+01
2.846969985961914062e+01
2.864412117004394531e+01
2.886470031738281250e+01
2.903964805603027344e+01
2.925970077514648438e+01
2.947922515869140625e+01
3.004969978332519531e+01
3.083959960937500000e+01
3.123460006713867188e+01
3.241960144042968750e+01
3.378129196166992188e+01
3.496651077270507812e+01
3.694171905517578125e+01
3.852188110351562500e+01
4.049704360961914062e+01
4.207726287841796875e+01
4.426900100708007812e+01
4.584899902343750000e+01
4.800279998779296875e+01
4.918796157836914062e+01
5.037322616577148438e+01
5.177370071411132812e+01
5.256370162963867188e+01
5.274391555786132812e+01
5.335369873046875000e+01
5.374860000610351562e+01
5.392960739135742188e+01
5.414360046386718750e+01
5.453860092163085938e+01
5.414360046386718750e+01
5.414360046386718750e+01
5.414360046386718750e+01
5.374860000610351562e+01
5.335369873046875000e+01
5.295869827270507812e+01
5.238032531738281250e+01
5.119510650634765625e+01
5.019380187988281250e+01
4.921963500976562500e+01
4.803446960449218750e+01
4.684920501708984375e+01
4.547908782958984375e+01
4.368888092041015625e+01
4.229410171508789062e+01
4.131845474243164062e+01
4.013319015502929688e+01
3.913430023193359375e+01
3.834429931640625000e+01
3.736754608154296875e+01
3.715940093994140625e+01
3.697207260131835938e+01
3.676440048217773438e+01
3.636940002441406250e+01
3.597439956665039062e+01
3.578601837158203125e+01
3.518439865112304688e+01
3.460059356689453125e+01
3.439450073242187500e+01
3.399950027465820312e+01
3.341480255126953125e+01
3.281449890136718750e+01
3.262432479858398438e+01
3.222911071777343750e+01
3.182035064697265625e+01
3.123460006713867188e+01
3.104332160949707031e+01
3.083959960937500000e+01
3.064779472351074219e+01
3.044459915161132812e+01
2.985736846923828125e+01
3.004969978332519531e+01
2.965469932556152344e+01
3.004969978332519531e+01
2.965469932556152344e+01
2.946105194091796875e+01
2.965469932556152344e+01
2.925970077514648438e+01
2.925970077514648438e+01
2.925970077514648438e+01
2.886470031738281250e+01
2.886470031738281250e+01
2.886470031738281250e+01
2.866894531250000000e+01
2.846969985961914062e+01
2.846969985961914062e+01
2.846969985961914062e+01
2.846969985961914062e+01
2.846969985961914062e+01
2.807480049133300781e+01
2.827234840393066406e+01
2.846969985961914062e+01
2.846969985961914062e+01
2.886470031738281250e+01
2.866835212707519531e+01
2.886470031738281250e+01
2.886470031738281250e+01
2.886470031738281250e+01
2.886470031738281250e+01
2.925970077514648438e+01
2.886470031738281250e+01
2.925970077514648438e+01
2.906546020507812500e+01
2.905867767333984375e+01
2.925970077514648438e+01
2.906624984741210938e+01
2.925970077514648438e+01
2.946177673339843750e+01
2.965469932556152344e+01
2.965469932556152344e+01
3.044459915161132812e+01
3.123460006713867188e+01
3.202460098266601562e+01
3.301815795898437500e+01
3.420341873168945312e+01
3.538858413696289062e+01
3.696884536743164062e+01
3.914871978759765625e+01
4.091917419433593750e+01
4.249933624267578125e+01
4.447449874877929688e+01
4.644971084594726562e+01
4.823595428466796875e+01
5.000508880615234375e+01
5.100185394287109375e+01
5.198051834106445312e+01
5.295869827270507812e+01
5.316604232788085938e+01
5.374860000610351562e+01
5.435147094726562500e+01
5.453860092163085938e+01
5.453860092163085938e+01
5.474726104736328125e+01
5.453860092163085938e+01
5.453860092163085938e+01
5.453860092163085938e+01
5.414360046386718750e+01
5.374860000610351562e+01
5.295869827270507812e+01
5.235319519042968750e+01
5.116798400878906250e+01
5.058879852294921875e+01
4.958750534057617188e+01
4.840234375000000000e+01
4.703390121459960938e+01
4.563691711425781250e+01
4.405670547485351562e+01
4.268909835815429688e+01
4.129132461547851562e+01
3.992419815063476562e+01
3.913430023193359375e+01
3.834429931640625000e+01
3.794929885864257812e+01
3.676440048217773438e+01
3.636940002441406250e+01
3.597439956665039062e+01
3.575941848754882812e+01
3.557939910888671875e+01
3.518439865112304688e+01
3.500521850585937500e+01
3.457346343994140625e+01
3.399950027465820312e+01
3.378293991088867188e+01
3.320949935913085938e+01
3.281449890136718750e+01
3.281449890136718750e+01
3.202460098266601562e+01
3.180672073364257812e+01
3.101645851135253906e+01
3.083959960937500000e+01
3.044459915161132812e+01
3.044459915161132812e+01
3.004969978332519531e+01
2.983024024963378906e+01
2.965469932556152344e+01
2.965469932556152344e+01
2.925970077514648438e+01
2.943418693542480469e+01
2.925970077514648438e+01
2.903866004943847656e+01
2.903839683532714844e+01
2.886470031738281250e+01
2.846969985961914062e+01
2.829683685302734375e+01
2.807480049133300781e+01
2.767980003356933594e+01
2.767980003356933594e+01
2.807480049133300781e+01
2.785139083862304688e+01
2.807480049133300781e+01
2.807480049133300781e+01
2.807480049133300781e+01
2.807480049133300781e+01
2.767980003356933594e+01
2.784980964660644531e+01
2.807480049133300781e+01
2.790531730651855469e+01
2.807480049133300781e+01
2.807480049133300781e+01
2.790610694885253906e+01
2.807480049133300781e+01
2.807480049133300781e+01
2.846969985961914062e+01
2.846969985961914062e+01
2.846969985961914062e+01
2.830262947082519531e+01
2.846969985961914062e+01
2.830315589904785156e+01
2.824108123779296875e+01
2.846969985961914062e+01
2.824055480957031250e+01
2.846969985961914062e+01
2.846969985961914062e+01
2.869969367980957031e+01
2.886470031738281250e+01
2.925970077514648438e+01
2.949048423767089844e+01
3.067564773559570312e+01
3.146591186523437500e+01
3.241960144042968750e+01
3.383633804321289062e+01
3.502154159545898438e+01
3.660176467895507812e+01
3.857692718505859375e+01
4.055208969116210938e+01
4.252725601196289062e+01
4.426900100708007812e+01
4.608267974853515625e+01
4.766284561157226562e+01
4.900880050659179688e+01
5.042827224731445312e+01
5.121847534179687500e+01
5.240369796752929688e+01
5.295869827270507812e+01
5.319422531127929688e+01
5.358942794799804688e+01
5.374860000610351562e+01
5.414360046386718750e+01
5.374860000610351562e+01
5.398544311523437500e+01
5.374860000610351562e+01
5.351129150390625000e+01
5.359127044677734375e+01
5.272080612182617188e+01
5.193054199218750000e+01
5.098379898071289062e+01
5.019380187988281250e+01
4.916485214233398438e+01
4.797968673706054688e+01
4.718942260742187500e+01
4.560926055908203125e+01
4.402905654907226562e+01
4.244883346557617188e+01
4.126367187500000000e+01
3.992419815063476562e+01
3.889324569702148438e+01
3.794929885864257812e+01
3.755429840087890625e+01
3.691755294799804688e+01
3.652228927612304688e+01
3.612702560424804688e+01
3.597439956665039062e+01
3.557939910888671875e+01
3.518439865112304688e+01
3.478950119018554688e+01
3.439450073242187500e+01
3.399950027465820312e+01
3.375528335571289062e+01
3.296501922607421875e+01
3.256982040405273438e+01
3.217459487915039062e+01
3.202460098266601562e+01
3.187513351440429688e+01
3.123460006713867188e+01
3.083959960937500000e+01
3.083959960937500000e+01
3.059301376342773438e+01
3.044459915161132812e+01
3.044459915161132812e+01
3.004969978332519531e+01
3.004969978332519531e+01
2.965469932556152344e+01
2.965469932556152344e+01
2.940626907348632812e+01
2.925970077514648438e+01
2.925970077514648438e+01
2.886470031738281250e+01
2.886470031738281250e+01
2.886470031738281250e+01
2.886470031738281250e+01
2.861442565917968750e+01
2.872023773193359375e+01
2.846969985961914062e+01
2.846969985961914062e+01
2.846969985961914062e+01
2.846969985961914062e+01
2.846969985961914062e+01
2.846969985961914062e+01
2.846969985961914062e+01
2.886470031738281250e+01
2.886470031738281250e+01
2.886470031738281250e+01
2.872313499450683594e+01
2.886470031738281250e+01
2.872366142272949219e+01
2.872392463684082031e+01
2.846969985961914062e+01
2.886470031738281250e+01
2.886470031738281250e+01
2.925970077514648438e+01
2.925970077514648438e+01
2.925970077514648438e+01
2.886470031738281250e+01
2.900336837768554688e+01
2.925970077514648438e+01
2.900284194946289062e+01
2.925970077514648438e+01
2.951708602905273438e+01
3.004969978332519531e+01
3.030754661560058594e+01
3.070277595520019531e+01
3.162960052490234375e+01
3.228330230712890625e+01
3.320949935913085938e+01
3.491289138793945312e+01
3.597439956665039062e+01
3.755429840087890625e+01
3.939431762695312500e+01
4.176448440551757812e+01
4.347909927368164062e+01
4.545399856567382812e+01
4.703390121459960938e+01
4.848023605346679688e+01
4.979880142211914062e+01
5.085066223144531250e+01
5.177370071411132812e+01
5.256370162963867188e+01
5.322135162353515625e+01
5.374860000610351562e+01
5.453860092163085938e+01
5.427515792846679688e+01
5.427489471435546875e+01
5.453860092163085938e+01
5.414360046386718750e+01
5.414360046386718750e+01
5.374860000610351562e+01
5.348364257812500000e+01
5.308841323852539062e+01
5.216870117187500000e+01
5.137870025634765625e+01
5.032272338867187500e+01
4.874252700805664062e+01
4.782389831542968750e+01
4.637210083007812500e+01
4.518687057495117188e+01
4.387409973144531250e+01
4.281644439697265625e+01
4.150419998168945312e+01
4.044601440429687500e+01
3.926085281372070312e+01
3.847058868408203125e+01
3.794929885864257812e+01
3.755429840087890625e+01
3.715940093994140625e+01
3.636940002441406250e+01
3.597439956665039062e+01
3.557939910888671875e+01
3.518439865112304688e+01
3.491365051269531250e+01
3.451841735839843750e+01
3.412315750122070312e+01
3.399950027465820312e+01
3.360449981689453125e+01
3.293736648559570312e+01
3.269192886352539062e+01
3.214693832397460938e+01
3.162960052490234375e+01
3.162960052490234375e+01
3.135614776611328125e+01
3.096088600158691406e+01
3.083959960937500000e+01
3.044459915161132812e+01
3.044459915161132812e+01
3.044459915161132812e+01
3.004969978332519531e+01
2.977440452575683594e+01
2.965469932556152344e+01
2.965469932556152344e+01
2.953578567504882812e+01
2.965469932556152344e+01
2.965469932556152344e+01
2.925970077514648438e+01
2.965469932556152344e+01
2.937729835510253906e+01
2.925970077514648438e+01
2.965469932556152344e+01
2.953789138793945312e+01
2.925970077514648438e+01
2.925970077514648438e+01
2.898071861267089844e+01
2.898045349121093750e+01
2.914420890808105469e+01
2.925970077514648438e+01
2.897966384887695312e+01
2.925970077514648438e+01
2.925970077514648438e+01
2.925970077514648438e+01
2.886470031738281250e+01
2.897834777832031250e+01
2.925970077514648438e+01
2.925970077514648438e+01
2.914684295654296875e+01
2.925970077514648438e+01
2.914736938476562500e+01
2.925970077514648438e+01
2.954289627075195312e+01
2.937124061584472656e+01
2.937097740173339844e+01
2.965469932556152344e+01
2.965469932556152344e+01
2.965469932556152344e+01
3.004969978332519531e+01
3.072963905334472656e+01
3.123460006713867188e+01
3.173903274536132812e+01
3.270535659790039062e+01
3.389059448242187500e+01
3.536214065551757812e+01
3.665602111816406250e+01
3.794929885864257812e+01
4.010352325439453125e+01
4.189920043945312500e+01
4.387409973144531250e+01
4.574193572998046875e+01
4.732210159301757812e+01
4.890229034423828125e+01
5.019380187988281250e+01
5.127271652221679688e+01
5.177370071411132812e+01
5.285321807861328125e+01
5.335369873046875000e+01
5.374860000610351562e+01
5.453860092163085938e+01
5.464302825927734375e+01
5.493360137939453125e+01
5.482969665527343750e+01
5.453860092163085938e+01
5.424697494506835938e+01
5.414360046386718750e+01
5.374860000610351562e+01
5.345626068115234375e+01
5.266602325439453125e+01
5.216870117187500000e+01
5.137870025634765625e+01
4.990033340454101562e+01
4.871514129638671875e+01
4.752990341186523438e+01
4.594974136352539062e+01
4.476447677612304688e+01
4.318431472778320312e+01
4.199912643432617188e+01
4.120888900756835938e+01
4.031919860839843750e+01
3.913430023193359375e+01
3.873929977416992188e+01
3.794929885864257812e+01
3.715940093994140625e+01
3.706129074096679688e+01
3.676440048217773438e+01
3.676440048217773438e+01
3.636940002441406250e+01
3.597439956665039062e+01
3.557939910888671875e+01
3.518439865112304688e+01
3.478950119018554688e+01
3.439450073242187500e+01
3.399950027465820312e+01
3.360449981689453125e+01
3.290970993041992188e+01
3.281449890136718750e+01
3.241960144042968750e+01
3.202460098266601562e+01
3.162960052490234375e+01
3.132849311828613281e+01
3.114097023010253906e+01
3.083959960937500000e+01
3.044459915161132812e+01
3.044459915161132812e+01
3.014225387573242188e+01
3.014199066162109375e+01
3.004969978332519531e+01
3.014146423339843750e+01
3.004969978332519531e+01
3.004969978332519531e+01
2.965469932556152344e+01
2.965469932556152344e+01
2.965469932556152344e+01
2.925970077514648438e+01
2.965469932556152344e+01
2.965469932556152344e+01
2.965469932556152344e+01
2.925970077514648438e+01
2.965469932556152344e+01
2.965469932556152344e+01
2.965469932556152344e+01
2.925970077514648438e+01
2.965469932556152344e+01
2.934727287292480469e+01
2.965469932556152344e+01
2.965469932556152344e+01
2.965469932556152344e+01
2.965469932556152344e+01
2.956844329833984375e+01
2.965469932556152344e+01
2.965469932556152344e+01
2.965469932556152344e+01
3.004969978332519531e+01
2.965469932556152344e+01
3.004969978332519531e+01
2.996528816223144531e+01
3.004969978332519531e+01
3.004969978332519531e+01
3.004969978332519531e+01
3.004969978332519531e+01
3.004969978332519531e+01
3.004969978332519531e+01
3.044459915161132812e+01
3.115229415893554688e+01
3.162960052490234375e+01
3.233782196044921875e+01
3.391798400878906250e+01
3.510316848754882812e+01
3.660242462158203125e+01
3.826357650756835938e+01
3.952930068969726562e+01
4.150419998168945312e+01
4.308409881591796875e+01
4.497932815551757812e+01
4.695449066162109375e+01
4.853475570678710938e+01
5.003603744506835938e+01
5.098379898071289062e+01
5.209034347534179688e+01
5.295869827270507812e+01
5.335369873046875000e+01
5.374860000610351562e+01
5.414360046386718750e+01
5.485656356811523438e+01
5.453860092163085938e+01
5.493360137939453125e+01
5.453860092163085938e+01
5.453860092163085938e+01
5.453860092163085938e+01
5.382405853271484375e+01
5.342887496948242188e+01
5.303363037109375000e+01
5.256370162963867188e+01
5.145310592651367188e+01
5.026794052124023438e+01
4.940380096435546875e+01
4.821889877319335938e+01
4.703390121459960938e+01
4.584899902343750000e+01
4.434182357788085938e+01
4.276166152954101562e+01
4.157649612426757812e+01
4.071419906616210938e+01
3.992419815063476562e+01
3.873929977416992188e+01
3.794929885864257812e+01
3.748333740234375000e+01
3.676440048217773438e+01
3.676440048217773438e+01
3.636940002441406250e+01
3.597439956665039062e+01
3.557939910888671875e+01
3.518439865112304688e+01
3.478950119018554688e+01
3.439450073242187500e+01
3.399950027465820312e+01
3.367284774780273438e+01
3.320949935913085938e+01
3.281449890136718750e+01
3.241960144042968750e+01
3.202460098266601562e+01
3.162960052490234375e+01
3.123460006713867188e+01
3.123460006713867188e+01
3.123460006713867188e+01
3.083959960937500000e+01
3.044459915161132812e+01
3.044459915161132812e+01
3.037943077087402344e+01
3.004969978332519531e+01
2.971935844421386719e+01
2.965469932556152344e+01
2.932383155822753906e+01
2.965469932556152344e+01
2.925970077514648438e+01
2.965469932556152344e+01
2.925970077514648438e+01
2.925970077514648438e+01
2.925970077514648438e+01
2.925970077514648438e+01
2.892672538757324219e+01
2.925970077514648438e+01
2.892619895935058594e+01
2.886470031738281250e+01
2.853067207336425781e+01
2.886470031738281250e+01
2.886470031738281250e+01
2.886470031738281250e+01
2.880478096008300781e+01
2.880504417419433594e+01
2.886470031738281250e+01
2.886470031738281250e+01
2.886470031738281250e+01
2.925970077514648438e+01
2.925970077514648438e+01
2.886470031738281250e+01
2.886470031738281250e+01
2.925970077514648438e+01
2.925970077514648438e+01
2.892172050476074219e+01
2.925970077514648438e+01
2.925970077514648438e+01
2.925970077514648438e+01
2.925970077514648438e+01
2.925970077514648438e+01
2.959925842285156250e+01
2.965469932556152344e+01
3.004969978332519531e+01
3.049925041198730469e+01
3.083959960937500000e+01
3.197047615051269531e+01
3.276065444946289062e+01
3.360449981689453125e+01
3.513108062744140625e+01
3.671133041381835938e+01
3.829149246215820312e+01
4.021412658691406250e+01
4.184692001342773438e+01
4.382208251953125000e+01
4.540224456787109375e+01
4.663890075683593750e+01
4.851144790649414062e+01
4.940380096435546875e+01
5.058879852294921875e+01
5.137870025634765625e+01
5.251352691650390625e+01
5.295869827270507812e+01
5.335369873046875000e+01
5.374860000610351562e+01
5.379771804809570312e+01
5.448974227905273438e+01
5.414360046386718750e+01
5.414360046386718750e+01
5.414360046386718750e+01
5.374860000610351562e+01
5.370107269287109375e+01
5.295869827270507812e+01
5.221571350097656250e+01
5.177370071411132812e+01
5.063528442382812500e+01
4.945002365112304688e+01
4.826485824584960938e+01
4.707959747314453125e+01
4.589443206787109375e+01
4.466400146484375000e+01
4.308409881591796875e+01
4.194383239746093750e+01
4.110919952392578125e+01
3.996831512451171875e+01
3.917815399169921875e+01
3.834429931640625000e+01
3.794929885864257812e+01
3.715940093994140625e+01
3.715940093994140625e+01
3.676440048217773438e+01
3.636940002441406250e+01
3.636940002441406250e+01
3.562114715576171875e+01
3.557939910888671875e+01
3.518439865112304688e+01
3.439450073242187500e+01
3.404019165039062500e+01
3.364492797851562500e+01
3.324966430664062500e+01
3.285440063476562500e+01
3.241960144042968750e+01
3.241960144042968750e+01
3.202460098266601562e+01
3.162960052490234375e+01
3.162960052490234375e+01
3.123460006713867188e+01
3.123460006713867188e+01
3.123460006713867188e+01
3.083959960937500000e+01
3.083959960937500000e+01
3.048160362243652344e+01
3.048134040832519531e+01
3.044459915161132812e+01
3.044459915161132812e+01
3.044459915161132812e+01
3.004969978332519531e+01
3.001427650451660156e+01
3.004969978332519531e+01
2.965469932556152344e+01
2.965469932556152344e+01
2.965469932556152344e+01
2.925970077514648438e+01
2.962085533142089844e+01
2.965469932556152344e+01
2.965469932556152344e+01
2.962164688110351562e+01
2.925970077514648438e+01
2.965469932556152344e+01
2.962243652343750000e+01
2.965469932556152344e+01
2.965469932556152344e+01
2.965469932556152344e+01
2.965469932556152344e+01
2.965469932556152344e+01
2.929038429260253906e+01
2.965469932556152344e+01
2.925970077514648438e+01
2.962480735778808594e+01
2.965469932556152344e+01
2.965469932556152344e+01
2.925970077514648438e+01
2.962586021423339844e+01
2.968327713012695312e+01
3.002138710021972656e+01
3.004969978332519531e+01
3.041682052612304688e+01
3.047212219238281250e+01
3.083959960937500000e+01
3.162960052490234375e+01
3.241960144042968750e+01
3.320949935913085938e+01
3.436829376220703125e+01
3.555345916748046875e+01
3.676440048217773438e+01
3.868846893310546875e+01
4.031919860839843750e+01
4.226921844482421875e+01
4.387409973144531250e+01
4.582463836669921875e+01
4.740480041503906250e+01
4.861389923095703125e+01
5.017022705078125000e+01
5.098379898071289062e+01
5.216870117187500000e+01
5.293591690063476562e+01
5.335369873046875000e+01
5.372634887695312500e+01
5.412160873413085938e+01
5.412187194824218750e+01
5.414360046386718750e+01
5.414360046386718750e+01
5.414360046386718750e+01
5.414360046386718750e+01
5.414360046386718750e+01
5.376874923706054688e+01
5.295869827270507812e+01
5.216870117187500000e+01
5.139805984497070312e+01
5.058879852294921875e+01
4.942263031005859375e+01
4.823746871948242188e+01
4.705220413208007812e+01
4.584899902343750000e+01
4.466400146484375000e+01
4.310161590576171875e+01
4.189920043945312500e+01
4.073118972778320312e+01
3.994092559814453125e+01
3.913430023193359375e+01
3.873929977416992188e+01
3.794929885864257812e+01
3.717506790161132812e+01
3.753889465332031250e+01
3.677954483032226562e+01
3.676440048217773438e+01
3.636940002441406250e+01
3.597439956665039062e+01
3.557939910888671875e+01
3.518439865112304688e+01
3.440806579589843750e+01
3.401280212402343750e+01
3.361753845214843750e+01
3.320949935913085938e+01
3.281449890136718750e+01
3.241960144042968750e+01
3.240761566162109375e+01
3.202460098266601562e+01
3.164105606079101562e+01
3.124579429626464844e+01
3.123460006713867188e+01
3.083959960937500000e+01
3.083959960937500000e+01
3.083959960937500000e+01
3.082972335815429688e+01
3.044459915161132812e+01
3.083024978637695312e+01
3.005878448486328125e+01
3.004969978332519531e+01
3.005825805664062500e+01
3.004969978332519531e+01
3.044459915161132812e+01
3.005746841430664062e+01
3.004969978332519531e+01
3.004245758056640625e+01
2.966168022155761719e+01
2.965469932556152344e+01
2.965469932556152344e+01
3.004351043701171875e+01
2.965469932556152344e+01
3.004969978332519531e+01
3.004430007934570312e+01
2.965983581542968750e+01
3.004969978332519531e+01
2.965469932556152344e+01
2.965469932556152344e+01
3.004969978332519531e+01
3.004969978332519531e+01
2.965825653076171875e+01
3.004969978332519531e+01
3.004969978332519531e+01
3.044183540344238281e+01
3.004969978332519531e+01
3.004969978332519531e+01
3.044459915161132812e+01
3.044459915161132812e+01
3.044315147399902344e+01
3.004969978332519531e+01
3.004969978332519531e+01
3.044394111633300781e+01
3.044459915161132812e+01
3.044473075866699219e+01
3.123446846008300781e+01
3.162960052490234375e+01
3.202525711059570312e+01
3.321042251586914062e+01
3.439568710327148438e+01
3.558084869384765625e+01
3.676782226562500000e+01
3.913430023193359375e+01
4.071419906616210938e+01
4.229660034179687500e+01
4.426900100708007812e+01
4.585505676269531250e+01
4.782719039916992188e+01
4.979880142211914062e+01
5.059262084960937500e+01
5.177778244018554688e+01
5.296304702758789062e+01
5.374399185180664062e+01
5.414360046386718750e+01
5.453860092163085938e+01
5.453860092163085938e+01
5.532293701171875000e+01
5.493360137939453125e+01
5.493360137939453125e+01
5.494005203247070312e+01
5.493360137939453125e+01
5.493360137939453125e+01
5.453135681152343750e+01
5.413609313964843750e+01
5.374083328247070312e+01
5.295869827270507812e+01
5.177370071411132812e+01
5.097523880004882812e+01
4.978997802734375000e+01
4.860481262207031250e+01
4.703390121459960938e+01
4.583938598632812500e+01
4.465412521362304688e+01
4.308409881591796875e+01
4.189920043945312500e+01
4.110919952392578125e+01
4.030826950073242188e+01
3.951810836791992188e+01
3.834429931640625000e+01
3.833258056640625000e+01
3.755429840087890625e+01
3.715940093994140625e+01
3.676440048217773438e+01
3.675162506103515625e+01
3.675136184692382812e+01
3.635609817504882812e+01
3.557939910888671875e+01
3.556557083129882812e+01
3.518439865112304688e+01
3.477514648437500000e+01
3.399950027465820312e+01
3.360449981689453125e+01
3.358935546875000000e+01
3.319409179687500000e+01
3.281449890136718750e+01
3.279856872558593750e+01
3.241960144042968750e+01
3.202460098266601562e+01
3.162960052490234375e+01
3.125158691406250000e+01
3.123460006713867188e+01
3.085711479187011719e+01
3.083959960937500000e+01
3.046264076232910156e+01
3.082129478454589844e+01
3.044459915161132812e+01
3.044459915161132812e+01
3.044459915161132812e+01
3.044459915161132812e+01
3.006931686401367188e+01
3.044459915161132812e+01
3.004969978332519531e+01
3.044459915161132812e+01
3.007036972045898438e+01
3.044459915161132812e+01
3.004969978332519531e+01
3.004969978332519531e+01
3.004969978332519531e+01
2.965469932556152344e+01
2.965469932556152344e+01
3.004969978332519531e+01
2.967748260498046875e+01
2.967774581909179688e+01
3.002639198303222656e+01
3.044459915161132812e+01
3.044459915161132812e+01
3.044459915161132812e+01
3.044459915161132812e+01
3.044459915161132812e+01
3.007458305358886719e+01
3.007484626770019531e+01
3.007510948181152344e+01
3.041892814636230469e+01
3.004969978332519531e+01
3.004969978332519531e+01
3.041813659667968750e+01
3.044459915161132812e+01
3.044459915161132812e+01
3.083959960937500000e+01
3.083959960937500000e+01
3.123460006713867188e+01
3.165764999389648438e+01
3.281449890136718750e+01
3.360449981689453125e+01
3.442333984375000000e+01
3.560850143432617188e+01
3.682312393188476562e+01
3.913430023193359375e+01
4.074409484863281250e+01
4.235441207885742188e+01
4.469441986083984375e+01
4.627467727661132812e+01
4.821889877319335938e+01
4.940380096435546875e+01
5.101526641845703125e+01
5.177370071411132812e+01
5.259569931030273438e+01
5.374860000610351562e+01
5.411107254028320312e+01
5.414360046386718750e+01
5.450554656982421875e+01
5.457191848754882812e+01
5.493360137939453125e+01
5.457244491577148438e+01
5.493360137939453125e+01
5.453860092163085938e+01
5.450396728515625000e+01
5.414360046386718750e+01
5.374860000610351562e+01
5.331827545166015625e+01
5.256370162963867188e+01
5.177370071411132812e+01
5.058879852294921875e+01
4.900880050659179688e+01
4.782389831542968750e+01
4.663890075683593750e+01
4.545399856567382812e+01
4.423147964477539062e+01
4.304630661010742188e+01
4.186114120483398438e+01
4.067588043212890625e+01
3.952930068969726562e+01
3.873929977416992188e+01
3.794929885864257812e+01
3.715940093994140625e+01
3.715940093994140625e+01
3.676440048217773438e+01
3.672423553466796875e+01
3.636940002441406250e+01
3.597439956665039062e+01
3.557939910888671875e+01
3.483070755004882812e+01
3.474801635742187500e+01
3.435275650024414062e+01
3.360449981689453125e+01
3.320949935913085938e+01
3.281449890136718750e+01
3.281449890136718750e+01
3.241960144042968750e+01
3.198127365112304688e+01
3.198101043701171875e+01
3.123460006713867188e+01
3.123460006713867188e+01
3.083959960937500000e+01
3.079495811462402344e+01
3.044459915161132812e+01
3.044459915161132812e+01
3.044459915161132812e+01
3.044459915161132812e+01
3.004969978332519531e+01
2.965469932556152344e+01
3.004969978332519531e+01
2.965469932556152344e+01
2.965469932556152344e+01
2.930697631835937500e+01
2.960716056823730469e+01
2.925970077514648438e+01
2.925970077514648438e+01
2.925970077514648438e+01
2.886470031738281250e+01
2.891355705261230469e+01
2.925970077514648438e+01
2.925970077514648438e+01
2.886470031738281250e+01
2.925970077514648438e+01
2.886470031738281250e+01
2.925970077514648438e+01
2.886470031738281250e+01
2.891566276550292969e+01
2.925970077514648438e+01
2.925970077514648438e+01
2.891645431518554688e+01
2.920768356323242188e+01
2.925970077514648438e+01
2.925970077514648438e+01
2.891750717163085938e+01
2.886470031738281250e+01
2.925970077514648438e+01
2.920610237121582031e+01
2.925970077514648438e+01
2.925970077514648438e+01
2.960031318664550781e+01
2.965469932556152344e+01
2.965469932556152344e+01
2.965469932556152344e+01
3.038917350769042969e+01
3.044459915161132812e+01
3.157363319396972656e+01
3.202460098266601562e+01
3.292749023437500000e+01
3.445125961303710938e+01
3.563642120361328125e+01
3.721667098999023438e+01
3.919184875488281250e+01
4.077201080322265625e+01
4.268909835815429688e+01
4.432733917236328125e+01
4.590760040283203125e+01
4.748776626586914062e+01
4.900880050659179688e+01
5.025319290161132812e+01
5.143835449218750000e+01
5.216870117187500000e+01
5.295869827270507812e+01
5.335369873046875000e+01
5.335369873046875000e+01
5.374860000610351562e+01
5.374860000610351562e+01
5.374860000610351562e+01
5.414360046386718750e+01
5.374860000610351562e+01
5.374860000610351562e+01
5.368606185913085938e+01
5.295869827270507812e+01
5.216870117187500000e+01
5.171035766601562500e+01
5.092019271850585938e+01
5.012993240356445312e+01
4.900880050659179688e+01
4.782389831542968750e+01
4.663890075683593750e+01
4.505899810791015625e+01
4.420383071899414062e+01
4.262364959716796875e+01
4.143848800659179688e+01
4.025322341918945312e+01
3.985797882080078125e+01
3.913430023193359375e+01
3.834429931640625000e+01
3.794929885864257812e+01
3.755429840087890625e+01
3.715940093994140625e+01
3.676440048217773438e+01
3.630131530761718750e+01
3.590605545043945312e+01
3.557939910888671875e+01
3.485835647583007812e+01
3.478950119018554688e+01
3.406890106201171875e+01
3.399950027465820312e+01
3.360449981689453125e+01
3.353430938720703125e+01
3.313904571533203125e+01
3.241960144042968750e+01
3.202460098266601562e+01
3.170084381103515625e+01
3.202460098266601562e+01
3.162960052490234375e+01
3.162960052490234375e+01
3.123460006713867188e+01
3.083959960937500000e+01
3.083959960937500000e+01
3.044459915161132812e+01
3.012303161621093750e+01
3.044459915161132812e+01
3.044459915161132812e+01
3.044459915161132812e+01
3.004969978332519531e+01
3.036995124816894531e+01
3.012461090087890625e+01
3.004969978332519531e+01
2.973015785217285156e+01
2.973042106628417969e+01
3.004969978332519531e+01
3.004969978332519531e+01
2.965469932556152344e+01
2.965469932556152344e+01
2.965469932556152344e+01
2.965469932556152344e+01
2.933726501464843750e+01
2.933752822875976562e+01
2.933779144287109375e+01
2.965469932556152344e+01
2.965469932556152344e+01
3.004969978332519531e+01
3.004969978332519531e+01
3.004969978332519531e+01
3.004969978332519531e+01
3.004969978332519531e+01
3.004969978332519531e+01
2.965469932556152344e+01
2.965469932556152344e+01
2.965469932556152344e+01
2.965469932556152344e+01
2.973621559143066406e+01
2.973647880554199219e+01
3.036257934570312500e+01
3.036231613159179688e+01
3.044459915161132812e+01
3.092243194580078125e+01
3.162960052490234375e+01
3.202460098266601562e+01
3.312587738037109375e+01
3.408338546752929688e+01
3.526855087280273438e+01
3.645381164550781250e+01
3.803397750854492188e+01
3.961421585083007812e+01
4.150419998168945312e+01
4.316956710815429688e+01
4.505899810791015625e+01
4.672489166259765625e+01
4.821889877319335938e+01
4.949031829833984375e+01
5.076234436035156250e+01
5.177370071411132812e+01
5.256370162963867188e+01
5.326612854003906250e+01
5.344151306152343750e+01
5.383670043945312500e+01
5.414360046386718750e+01
5.423222732543945312e+01
5.423249053955078125e+01
5.444944763183593750e+01
5.453860092163085938e+01
5.374860000610351562e+01
5.374860000610351562e+01
5.335369873046875000e+01
5.256370162963867188e+01
5.177370071411132812e+01
5.098379898071289062e+01
5.010253906250000000e+01
4.891730117797851562e+01
4.782389831542968750e+01
4.684982299804687500e+01
4.545399856567382812e+01
4.408386993408203125e+01
4.299126052856445312e+01
4.180609512329101562e+01
4.101583099365234375e+01
3.992419815063476562e+01
3.913430023193359375e+01
3.834429931640625000e+01
3.794929885864257812e+01
3.715940093994140625e+01
3.685934829711914062e+01
3.676440048217773438e+01
3.636940002441406250e+01
3.627366256713867188e+01
3.597439956665039062e+01
3.557939910888671875e+01
3.518439865112304688e+01
3.478950119018554688e+01
3.399950027465820312e+01
3.360449981689453125e+01
3.360449981689453125e+01
3.311165618896484375e+01
3.281449890136718750e+01
3.241960144042968750e+01
3.202460098266601562e+01
3.162960052490234375e+01
3.123460006713867188e+01
3.123460006713867188e+01
3.093928909301757812e+01
3.113464927673339844e+01
3.083959960937500000e+01
3.113412094116210938e+01
3.083959960937500000e+01
3.044459915161132812e+01
3.044459915161132812e+01
3.034309387207031250e+01
3.044459915161132812e+01
3.004969978332519531e+01
3.015199661254882812e+01
3.044459915161132812e+01
3.004969978332519531e+01
3.004969978332519531e+01
3.004969978332519531e+01
3.004969978332519531e+01
2.965469932556152344e+01
3.004969978332519531e+01
3.004969978332519531e+01
3.004969978332519531e+01
2.994474411010742188e+01
2.975992012023925781e+01
2.965469932556152344e+01
3.004969978332519531e+01
2.965469932556152344e+01
2.976097297668457031e+01
2.994316482543945312e+01
3.004969978332519531e+01
3.004969978332519531e+01
2.994237327575683594e+01
2.965469932556152344e+01
2.965469932556152344e+01
2.976281547546386719e+01
2.965469932556152344e+01
3.004969978332519531e+01
3.004969978332519531e+01
2.976387023925781250e+01
3.004969978332519531e+01
3.015936851501464844e+01
3.044459915161132812e+01
3.083959960937500000e+01
3.123460006713867188e+01
3.202460098266601562e+01
3.332051467895507812e+01
3.439450073242187500e+01
3.529594039916992188e+01
3.727117538452148438e+01
3.873929977416992188e+01
4.043152999877929688e+01
4.240669250488281250e+01
4.398692703247070312e+01
4.584899902343750000e+01
4.742890167236328125e+01
4.872751998901367188e+01
5.019380187988281250e+01
5.137870025634765625e+01
5.216870117187500000e+01
5.267840194702148438e+01
5.374860000610351562e+01
5.414360046386718750e+01
5.425909042358398438e+01
5.453860092163085938e+01
5.453860092163085938e+01
5.453860092163085938e+01
5.453860092163085938e+01
5.453860092163085938e+01
5.453860092163085938e+01
5.414360046386718750e+01
5.374860000610351562e+01
5.295869827270507812e+01
5.228682327270507812e+01
5.165531158447265625e+01
5.058879852294921875e+01
4.928488540649414062e+01
4.782389831542968750e+01
4.651948928833007812e+01
4.533429336547851562e+01
4.387409973144531250e+01
4.268909835815429688e+01
4.150419998168945312e+01
4.031919860839843750e+01
3.952930068969726562e+01
3.873929977416992188e+01
3.861775207519531250e+01
3.794929885864257812e+01
3.755429840087890625e+01
3.728170776367187500e+01
3.715940093994140625e+01
3.676440048217773438e+01
3.636940002441406250e+01
3.597439956665039062e+01
3.585074615478515625e+01
3.506051254272460938e+01
3.478950119018554688e+01
3.427005386352539062e+01
3.399950027465820312e+01
3.347952651977539062e+01
3.308426284790039062e+01
3.268903350830078125e+01
3.241960144042968750e+01
3.202460098266601562e+01
3.175588989257812500e+01
3.123460006713867188e+01
3.123460006713867188e+01
3.123460006713867188e+01
3.083959960937500000e+01
3.083959960937500000e+01
3.057246971130371094e+01
3.044459915161132812e+01
3.044459915161132812e+01
3.044459915161132812e+01
3.004969978332519531e+01
3.004969978332519531e+01
3.004969978332519531e+01
2.991998672485351562e+01
2.991972351074218750e+01
3.004969978332519531e+01
2.991919708251953125e+01
2.978546714782714844e+01
2.965469932556152344e+01
3.004969978332519531e+01
2.991814231872558594e+01
2.991787910461425781e+01
3.004969978332519531e+01
3.004969978332519531e+01
2.965469932556152344e+01
2.978757286071777344e+01
2.939283752441406250e+01
2.965469932556152344e+01
2.965469932556152344e+01
2.925970077514648438e+01
2.965469932556152344e+01
2.952024650573730469e+01
2.965469932556152344e+01
2.951972007751464844e+01
2.965469932556152344e+01
2.979020690917968750e+01
2.965469932556152344e+01
2.979073524475097656e+01
3.004969978332519531e+01
3.004969978332519531e+01
3.004969978332519531e+01
3.004969978332519531e+01
3.044459915161132812e+01
3.044459915161132812e+01
3.097747802734375000e+01
3.137274169921875000e+01
3.241960144042968750e+01
3.309183502197265625e+01
3.453343200683593750e+01
3.571859359741210938e+01
3.704328155517578125e+01
3.913430023193359375e+01
4.085418319702148438e+01
4.282934951782226562e+01
4.440951156616210938e+01
4.598977661132812500e+01
4.796493911743164062e+01
4.889646911621093750e+01
4.994036483764648438e+01
5.112559127807617188e+01
5.216870117187500000e+01
5.256370162963867188e+01
5.310131835937500000e+01
5.374860000610351562e+01
5.389174652099609375e+01
5.414360046386718750e+01
5.389227294921875000e+01
5.453860092163085938e+01
5.414360046386718750e+01
5.414360046386718750e+01
5.399887466430664062e+01
5.360364913940429688e+01
5.320844650268554688e+01
5.335369873046875000e+01
5.216870117187500000e+01
5.123269271850585938e+01
5.004749298095703125e+01
4.900880050659179688e+01
4.767706680297851562e+01
4.624399948120117188e+01
4.491164016723632812e+01
4.387409973144531250e+01
4.229410171508789062e+01
4.135604858398437500e+01
4.031919860839843750e+01
3.977556228637695312e+01
3.898535919189453125e+01
3.873929977416992188e+01
3.794929885864257812e+01
3.755429840087890625e+01
3.740434646606445312e+01
3.700914382934570312e+01
3.661388015747070312e+01
3.621861648559570312e+01
3.557939910888671875e+01
3.518439865112304688e+01
3.439450073242187500e+01
3.424266433715820312e+01
3.345240020751953125e+01
3.320949935913085938e+01
3.281449890136718750e+01
3.257245254516601562e+01
3.241960144042968750e+01
3.202460098266601562e+01
3.162960052490234375e+01
3.147565650939941406e+01
3.099380683898925781e+01
3.123460006713867188e+01
3.068486595153808594e+01
3.059959793090820312e+01
3.083959960937500000e+01
3.060012435913085938e+01
3.060038757324218750e+01
3.044459915161132812e+01
3.020597457885742188e+01
3.028806114196777344e+01
3.004969978332519531e+01
3.004969978332519531e+01
2.965469932556152344e+01
2.965469932556152344e+01
2.965469932556152344e+01
2.925970077514648438e+01
2.925970077514648438e+01
2.925970077514648438e+01
2.902364730834960938e+01
2.902391242980957031e+01
2.925970077514648438e+01
2.902443885803222656e+01
2.925970077514648438e+01
2.925970077514648438e+01
2.902522850036621094e+01
2.925970077514648438e+01
2.925970077514648438e+01
2.902601814270019531e+01
2.925970077514648438e+01
2.925970077514648438e+01
2.925970077514648438e+01
2.925970077514648438e+01
2.925970077514648438e+01
2.902759933471679688e+01
2.925970077514648438e+01
2.902812576293945312e+01
2.965469932556152344e+01
2.949074745178222656e+01
2.949048423767089844e+01
2.942417907714843750e+01
2.948995780944824219e+01
2.942470550537109375e+01
2.965469932556152344e+01
3.021519088745117188e+01
3.021545410156250000e+01
3.162960052490234375e+01
3.241960144042968750e+01
3.337608718872070312e+01
3.433319854736328125e+01
3.591362380981445312e+01
3.772167587280273438e+01
3.890694046020507812e+01
4.088210296630859375e+01
4.268909835815429688e+01
4.443743133544921875e+01
4.624399948120117188e+01
4.759785461425781250e+01
4.940380096435546875e+01
5.019380187988281250e+01
5.098379898071289062e+01
5.194371032714843750e+01
5.256370162963867188e+01
5.295869827270507812e+01
5.312950134277343750e+01
5.352471923828125000e+01
5.374860000610351562e+01
5.374860000610351562e+01
5.414360046386718750e+01
5.374860000610351562e+01
5.374860000610351562e+01
5.335369873046875000e+01
5.295869827270507812e+01
5.216870117187500000e+01
5.160026550292968750e+01
5.081010437011718750e+01
4.962483978271484375e+01
4.883462142944335938e+01
4.764941406250000000e+01
4.606924819946289062e+01
4.466400146484375000e+01
4.308409881591796875e+01
4.211860275268554688e+01
4.132839584350585938e+01
4.014313125610351562e+01
3.935297012329101562e+01
3.895770645141601562e+01
3.834429931640625000e+01
3.773142242431640625e+01
3.737696075439453125e+01
3.737669754028320312e+01
3.676440048217773438e+01
3.676440048217773438e+01
3.615283966064453125e+01
3.557939910888671875e+01
3.536336517333984375e+01
3.500521850585937500e+01
3.461000823974609375e+01
3.399950027465820312e+01
3.360449981689453125e+01
3.320949935913085938e+01
3.281449890136718750e+01
3.281449890136718750e+01
3.223852920532226562e+01
3.162960052490234375e+01
3.162960052490234375e+01
3.144773864746093750e+01
3.123460006713867188e+01
3.105221176147460938e+01
3.083959960937500000e+01
3.083959960937500000e+01
3.083959960937500000e+01
3.083959960937500000e+01
3.044459915161132812e+01
3.004969978332519531e+01
2.986546707153320312e+01
3.004969978332519531e+01
3.004969978332519531e+01
3.004969978332519531e+01
2.986441421508789062e+01
2.965469932556152344e+01
2.944551277160644531e+01
2.965469932556152344e+01
2.965469932556152344e+01
2.965469932556152344e+01
2.925970077514648438e+01
2.944682884216308594e+01
2.965469932556152344e+01
2.946704292297363281e+01
2.944762039184570312e+01
2.965469932556152344e+01
2.965469932556152344e+01
2.965469932556152344e+01
2.965469932556152344e+01
2.944893646240234375e+01
2.965469932556152344e+01
2.944946289062500000e+01
2.984472656250000000e+01
2.944998931884765625e+01
2.965469932556152344e+01
2.965469932556152344e+01
2.945078086853027344e+01
2.965469932556152344e+01
2.945130729675292969e+01
2.965469932556152344e+01
2.984683418273925781e+01
2.965469932556152344e+01
3.004969978332519531e+01
3.044459915161132812e+01
3.063778686523437500e+01
3.142805099487304688e+01
3.221831512451171875e+01
3.300847625732421875e+01
3.419374084472656250e+01
3.557939910888671875e+01
3.695916748046875000e+01
3.834429931640625000e+01
4.011949539184570312e+01
4.169975662231445312e+01
4.367491912841796875e+01
4.525508499145507812e+01
4.703390121459960938e+01
4.841551208496093750e+01
4.920567321777343750e+01
5.019380187988281250e+01
5.137870025634765625e+01
5.216870117187500000e+01
5.276162719726562500e+01
5.315689086914062500e+01
5.355210494995117188e+01
5.394731903076171875e+01
5.414360046386718750e+01
5.434284591674804688e+01
5.433909225463867188e+01
5.453860092163085938e+01
5.453860092163085938e+01
5.374860000610351562e+01
5.335369873046875000e+01
5.295869827270507812e+01
5.216870117187500000e+01
5.117739868164062500e+01
5.019380187988281250e+01
4.900880050659179688e+01
4.762175750732421875e+01
4.604159545898437500e+01
4.505899810791015625e+01
4.367116928100585938e+01
4.267770767211914062e+01
4.130073928833007812e+01
4.051047897338867188e+01
3.992419815063476562e+01
3.873929977416992188e+01
3.834429931640625000e+01
3.815407562255859375e+01
3.755429840087890625e+01
3.734904861450195312e+01
3.715940093994140625e+01
3.676440048217773438e+01
3.676440048217773438e+01
3.636940002441406250e+01
3.557939910888671875e+01
3.539128112792968750e+01
3.478950119018554688e+01
3.439450073242187500e+01
3.399950027465820312e+01
3.300156402587890625e+01
3.300130081176757812e+01
3.260609054565429688e+01
3.221087265014648438e+01
3.202460098266601562e+01
3.202460098266601562e+01
3.162960052490234375e+01
3.123460006713867188e+01
3.144464302062988281e+01
3.162960052490234375e+01
3.162960052490234375e+01
3.123460006713867188e+01
3.123460006713867188e+01
3.083959960937500000e+01
3.083959960937500000e+01
3.062771224975585938e+01
3.044459915161132812e+01
3.026206016540527344e+01
3.004969978332519531e+01
2.983675956726074219e+01
2.986790466308593750e+01
3.004969978332519531e+01
3.004969978332519531e+01
2.986869430541992188e+01
3.004969978332519531e+01
2.983517837524414062e+01
2.965469932556152344e+01
2.986974716186523438e+01
3.004969978332519531e+01
3.004969978332519531e+01
2.965469932556152344e+01
2.965469932556152344e+01
2.987106513977050781e+01
2.983307266235351562e+01
2.965469932556152344e+01
2.965469932556152344e+01
3.004969978332519531e+01
2.983201789855957031e+01
2.987264442443847656e+01
2.987290763854980469e+01
2.983122825622558594e+01
2.987343406677246094e+01
2.987369728088378906e+01
2.987396240234375000e+01
3.004969978332519531e+01
3.022486686706542969e+01
3.044459915161132812e+01
3.083959960937500000e+01
3.123460006713867188e+01
3.202460098266601562e+01
3.241960144042968750e+01
3.360449981689453125e+01
3.501107406616210938e+01
3.636940002441406250e+01
3.777645874023437500e+01
3.935672378540039062e+01
4.093688583374023438e+01
4.268909835815429688e+01
4.449221038818359375e+01
4.584899902343750000e+01
4.748137664794921875e+01
4.861389923095703125e+01
5.002306747436523438e+01
5.120827102661132812e+01
5.199849319458007812e+01
5.256370162963867188e+01
5.335369873046875000e+01
5.374860000610351562e+01
5.414360046386718750e+01
5.453860092163085938e+01
5.493360137939453125e+01
5.453860092163085938e+01
5.493360137939453125e+01
5.516076278686523438e+01
5.493360137939453125e+01
5.470590972900390625e+01
5.414360046386718750e+01
5.374860000610351562e+01
5.295869827270507812e+01
5.193995666503906250e+01
5.075479507446289062e+01
4.979880142211914062e+01
4.838436508178710938e+01
4.742890167236328125e+01
4.601393890380859375e+01
4.505899810791015625e+01
4.387409973144531250e+01
4.268909835815429688e+01
4.150419998168945312e+01
4.087782287597656250e+01
3.969261932373046875e+01
3.913430023193359375e+01
3.873929977416992188e+01
3.834429931640625000e+01
3.794929885864257812e+01
3.732140350341796875e+01
3.715940093994140625e+01
3.676440048217773438e+01
3.613565444946289062e+01
3.574039077758789062e+01
3.534512710571289062e+01
3.478950119018554688e+01
3.439450073242187500e+01
3.399950027465820312e+01
3.360449981689453125e+01
3.344509124755859375e+01
3.320949935913085938e+01
3.281449890136718750e+01
3.257817840576171875e+01
3.241960144042968750e+01
3.241960144042968750e+01
3.226177215576171875e+01
3.186703491210937500e+01
3.139190292358398438e+01
3.123460006713867188e+01
3.123460006713867188e+01
3.083959960937500000e+01
3.083959960937500000e+01
3.044459915161132812e+01
3.044459915161132812e+01
3.028918075561523438e+01
3.004969978332519531e+01
3.004969978332519531e+01
2.980936813354492188e+01
2.965469932556152344e+01
2.965469932556152344e+01
2.965469932556152344e+01
2.950108528137207031e+01
2.941305160522460938e+01
2.950161170959472656e+01
2.950187492370605469e+01
2.965469932556152344e+01
2.925970077514648438e+01
2.941173362731933594e+01
2.950292968750000000e+01
2.925970077514648438e+01
2.941094398498535156e+01
2.965469932556152344e+01
2.965469932556152344e+01
2.950424575805664062e+01
2.940989112854003906e+01
2.940962791442871094e+01
2.965469932556152344e+01
2.965469932556152344e+01
2.965469932556152344e+01
2.965469932556152344e+01
2.965469932556152344e+01
2.965469932556152344e+01
2.940778350830078125e+01
2.965469932556152344e+01
2.965469932556152344e+01
2.965469932556152344e+01
3.004969978332519531e+01
3.004969978332519531e+01
3.083959960937500000e+01
3.162960052490234375e+01
3.202460098266601562e+01
3.345878601074218750e+01
3.449860000610351562e+01
3.582921218872070312e+01
3.726448822021484375e+01
3.913430023193359375e+01
4.096480178833007812e+01
4.293996810913085938e+01
4.452013015747070312e+01
4.635172271728515625e+01
4.768055725097656250e+01
4.926071929931640625e+01
5.005098342895507812e+01
5.137870025634765625e+01
5.242140960693359375e+01
5.270572662353515625e+01
5.335369873046875000e+01
5.374860000610351562e+01
5.428483581542968750e+01
5.453860092163085938e+01
5.453860092163085938e+01
5.479315567016601562e+01
5.479341888427734375e+01
5.493360137939453125e+01
5.453860092163085938e+01
5.414360046386718750e+01
5.374860000610351562e+01
5.335369873046875000e+01
5.256370162963867188e+01
5.137870025634765625e+01
5.033187484741210938e+01
4.914661026000976562e+01
4.796144866943359375e+01
4.638125228881835938e+01
4.519602203369140625e+01
4.401082229614257812e+01
4.282559585571289062e+01
4.164043045043945312e+01
4.085017013549804688e+01
4.031919860839843750e+01
3.887474060058593750e+01
3.834429931640625000e+01
3.794929885864257812e+01
3.781464767456054688e+01
3.729375457763671875e+01
3.676440048217773438e+01
3.676440048217773438e+01
3.636940002441406250e+01
3.571273422241210938e+01
3.531747055053710938e+01
3.478950119018554688e+01
3.439450073242187500e+01
3.413178253173828125e+01
3.360449981689453125e+01
3.334125518798828125e+01
3.307801055908203125e+01
3.281449890136718750e+01
3.241960144042968750e+01
3.202460098266601562e+01
3.202460098266601562e+01
3.149942588806152344e+01
3.136451148986816406e+01
3.123460006713867188e+01
3.083959960937500000e+01
3.083959960937500000e+01
3.044459915161132812e+01
3.044459915161132812e+01
3.017799758911132812e+01
3.031656455993652344e+01
3.004969978332519531e+01
2.992215919494628906e+01
3.004969978332519531e+01
2.965469932556152344e+01
2.965469932556152344e+01
2.992321395874023438e+01
2.965469932556152344e+01
2.965469932556152344e+01
2.965469932556152344e+01
2.965469932556152344e+01
2.952952957153320312e+01
2.965469932556152344e+01
2.938434410095214844e+01
2.925970077514648438e+01
2.925970077514648438e+01
2.925970077514648438e+01
2.925970077514648438e+01
2.925970077514648438e+01
2.925970077514648438e+01
2.886470031738281250e+01
2.925970077514648438e+01
2.925970077514648438e+01
2.925970077514648438e+01
2.953295326232910156e+01
2.925970077514648438e+01
2.953347969055175781e+01
2.965469932556152344e+01
2.965469932556152344e+01
2.965469932556152344e+01
2.965469932556152344e+01
2.965469932556152344e+01
2.993006134033203125e+01
3.004969978332519531e+01
3.004969978332519531e+01
3.044459915161132812e+01
3.083959960937500000e+01
3.123460006713867188e+01
3.214265823364257812e+01
3.309170532226562500e+01
3.427696609497070312e+01
3.585713195800781250e+01
3.704239654541015625e+01
3.862255859375000000e+01
4.048124313354492188e+01
4.229410171508789062e+01
4.415307617187500000e+01
4.584899902343750000e+01
4.742890167236328125e+01
4.889366912841796875e+01
5.019380187988281250e+01
5.126409530639648438e+01
5.205432891845703125e+01
5.295869827270507812e+01
5.335369873046875000e+01
5.403001785278320312e+01
5.414360046386718750e+01
5.414360046386718750e+01
5.465139007568359375e+01
5.482107162475585938e+01
5.453860092163085938e+01
5.453860092163085938e+01
5.414360046386718750e+01
5.414360046386718750e+01
5.346488189697265625e+01
5.324275207519531250e+01
5.256370162963867188e+01
5.137870025634765625e+01
5.030395889282226562e+01
4.900880050659179688e+01
4.782389831542968750e+01
4.663890075683593750e+01
4.516810226440429688e+01
4.358794021606445312e+01
4.240267562866210938e+01
4.150419998168945312e+01
4.071419906616210938e+01
3.992419815063476562e+01
3.913430023193359375e+01
3.873929977416992188e+01
3.834429931640625000e+01
3.766103363037109375e+01
3.755429840087890625e+01
3.715940093994140625e+01
3.687034225463867188e+01
3.636940002441406250e+01
3.607981491088867188e+01
3.557939910888671875e+01
3.518439865112304688e+01
3.478950119018554688e+01
3.439450073242187500e+01
3.399950027465820312e+01
3.360449981689453125e+01
3.320949935913085938e+01
3.281449890136718750e+01
3.252262115478515625e+01
3.241960144042968750e+01
3.202460098266601562e+01
3.162960052490234375e+01
3.162960052490234375e+01
3.152787017822265625e+01
3.123460006713867188e+01
3.123460006713867188e+01
3.123460006713867188e+01
3.083959960937500000e+01
3.054501342773437500e+01
3.073945045471191406e+01
3.044459915161132812e+01
3.044459915161132812e+01
3.014903450012207031e+01
3.004969978332519531e+01
3.034579277038574219e+01
3.044459915161132812e+01
3.004969978332519531e+01
3.004969978332519531e+01
3.004969978332519531e+01
2.965469932556152344e+01
2.995244789123535156e+01
3.004969978332519531e+01
3.004969978332519531e+01
3.004969978332519531e+01
2.965469932556152344e+01
2.975063514709472656e+01
2.975037193298339844e+01
2.965469932556152344e+01
2.995455551147460938e+01
2.995481872558593750e+01
3.004969978332519531e+01
2.965469932556152344e+01
2.965469932556152344e+01
2.974852752685546875e+01
3.004969978332519531e+01
3.004969978332519531e+01
2.965469932556152344e+01
2.995692443847656250e+01
3.004969978332519531e+01
2.965469932556152344e+01
2.965469932556152344e+01
3.004969978332519531e+01
3.014113426208496094e+01
3.044459915161132812e+01
3.083959960937500000e+01
3.153893280029296875e+01
3.202460098266601562e+01
3.281449890136718750e+01
3.390962219238281250e+01
3.518439865112304688e+01
3.667504882812500000e+01
3.834429931640625000e+01
4.023037719726562500e+01
4.181063842773437500e+01
4.369750595092773438e+01
4.576096725463867188e+01
4.734112930297851562e+01
4.852639389038085938e+01
5.010655593872070312e+01
5.137870025634765625e+01
5.216870117187500000e+01
5.326724624633789062e+01
5.374860000610351562e+01
5.453860092163085938e+01
5.484793472290039062e+01
5.524319839477539062e+01
5.572349929809570312e+01
5.541345214843750000e+01
5.532860183715820312e+01
5.572349929809570312e+01
5.532860183715820312e+01
5.532860183715820312e+01
5.493360137939453125e+01
5.453860092163085938e+01
5.335369873046875000e+01
5.225146484375000000e+01
5.137870025634765625e+01
5.027603912353515625e+01
4.900880050659179688e+01
4.790561294555664062e+01
4.663890075683593750e+01
4.514018630981445312e+01
4.356002426147460938e+01
4.268909835815429688e+01
4.158459472656250000e+01
4.079433441162109375e+01
3.992419815063476562e+01
3.913430023193359375e+01
3.873929977416992188e+01
3.802837753295898438e+01
3.794929885864257812e+01
3.763285064697265625e+01
3.755429840087890625e+01
3.684242630004882812e+01
3.644716262817382812e+01
3.605189895629882812e+01
3.557939910888671875e+01
3.518439865112304688e+01
3.478950119018554688e+01
3.399950027465820312e+01
3.399950027465820312e+01
3.360449981689453125e+01
3.320949935913085938e+01
3.281449890136718750e+01
3.273939132690429688e+01
3.241960144042968750e+01
3.241960144042968750e+01
3.202460098266601562e+01
3.202460098266601562e+01
3.195078849792480469e+01
3.162960052490234375e+01
3.162960052490234375e+01
3.155657958984375000e+01
3.123460006713867188e+01
3.123460006713867188e+01
3.091183090209960938e+01
3.083959960937500000e+01
3.044459915161132812e+01
3.051604080200195312e+01
3.004969978332519531e+01
3.004969978332519531e+01
3.037396621704101562e+01
3.044459915161132812e+01
3.004969978332519531e+01
3.004969978332519531e+01
2.972429656982421875e+01
2.965469932556152344e+01
2.972377014160156250e+01
2.965469932556152344e+01
2.972324371337890625e+01
2.998141860961914062e+01
2.965469932556152344e+01
2.965469932556152344e+01
3.004969978332519531e+01
3.004969978332519531e+01
3.004969978332519531e+01
3.037791633605957031e+01
3.044459915161132812e+01
3.037844276428222656e+01
3.004969978332519531e+01
3.044459915161132812e+01
3.044459915161132812e+01
3.044459915161132812e+01
3.044459915161132812e+01
3.044459915161132812e+01
3.044459915161132812e+01
3.044459915161132812e+01
3.083959960937500000e+01
3.090313911437988281e+01
3.156632423400878906e+01
3.235658645629882812e+01
3.281449890136718750e+01
3.354201507568359375e+01
3.472727584838867188e+01
3.591244125366210938e+01
3.709770202636718750e+01
3.867786788940429688e+01
4.025802993774414062e+01
4.223320770263671875e+01
4.420837402343750000e+01
4.584899902343750000e+01
4.782389831542968750e+01
4.900880050659179688e+01
5.058879852294921875e+01
5.210937500000000000e+01
5.295869827270507812e+01
5.374860000610351562e+01
5.448006439208984375e+01
5.493360137939453125e+01
5.532860183715820312e+01
5.538632965087890625e+01
5.572349929809570312e+01
5.572349929809570312e+01
5.611849975585937500e+01
5.572349929809570312e+01
5.566708755493164062e+01
5.532860183715820312e+01
5.493360137939453125e+01
5.448295974731445312e+01
5.414360046386718750e+01
5.301381301879882812e+01
5.216870117187500000e+01
5.064338302612304688e+01
4.979880142211914062e+01
4.827295684814453125e+01
4.703390121459960938e+01
4.550753021240234375e+01
4.432226943969726562e+01
4.308409881591796875e+01
4.160966873168945312e+01
4.076667785644531250e+01
3.992419815063476562e+01
3.913430023193359375e+01
3.834429931640625000e+01
3.794929885864257812e+01
3.755429840087890625e+01
3.681529617309570312e+01
3.676440048217773438e+01
3.636940002441406250e+01
3.676440048217773438e+01
3.636940002441406250e+01
3.557939910888671875e+01
3.518439865112304688e+01
3.444355392456054688e+01
3.404829025268554688e+01
3.360449981689453125e+01
3.320949935913085938e+01
3.286249923706054688e+01
3.246732330322265625e+01
3.207207489013671875e+01
3.202460098266601562e+01
3.167654609680175781e+01
3.162960052490234375e+01
3.123460006713867188e+01
3.083959960937500000e+01
3.083959960937500000e+01
3.079397010803222656e+01
3.039924430847167969e+01
3.009479141235351562e+01
3.009452819824218750e+01
2.969927597045898438e+01
2.969901275634765625e+01
2.925970077514648438e+01
2.930348587036132812e+01
2.925970077514648438e+01
2.890795898437500000e+01
2.925970077514648438e+01
2.925970077514648438e+01
2.925970077514648438e+01
2.890690612792968750e+01
2.925970077514648438e+01
2.886470031738281250e+01
2.925970077514648438e+01
2.890585327148437500e+01
2.925970077514648438e+01
2.886470031738281250e+01
2.890506172180175781e+01
2.925970077514648438e+01
2.925970077514648438e+01
2.961512756347656250e+01
2.925970077514648438e+01
2.925970077514648438e+01
2.922091865539550781e+01
2.886470031738281250e+01
2.925970077514648438e+01
2.925970077514648438e+01
2.886470031738281250e+01
2.922223472595214844e+01
2.925970077514648438e+01
2.925970077514648438e+01
2.929637527465820312e+01
2.965469932556152344e+01
2.965469932556152344e+01
3.004969978332519531e+01
3.004969978332519531e+01
3.044459915161132812e+01
3.080450439453125000e+01
3.159476852416992188e+01
3.241960144042968750e+01
3.320949935913085938e+01
3.439450073242187500e+01
3.633562088012695312e+01
3.788227844238281250e+01
3.952930068969726562e+01
4.143822479248046875e+01
4.341365051269531250e+01
4.538907623291015625e+01
4.696951293945312500e+01
4.821889877319335938e+01
5.016212844848632812e+01
5.134730148315429688e+01
5.253255462646484375e+01
5.332281875610351562e+01
5.374860000610351562e+01
5.450824737548828125e+01
5.490351104736328125e+01
5.493360137939453125e+01
5.493360137939453125e+01
5.493360137939453125e+01
5.496263885498046875e+01
5.493360137939453125e+01
5.490509033203125000e+01
5.453860092163085938e+01
5.377658462524414062e+01
5.335369873046875000e+01
5.219615554809570312e+01
5.140589523315429688e+01
5.058879852294921875e+01
4.903546524047851562e+01
4.821889877319335938e+01
4.666503906250000000e+01
4.545399856567382812e+01
4.426900100708007812e+01
4.271445083618164062e+01
4.152928543090820312e+01
4.071419906616210938e+01
3.952930068969726562e+01
3.873929977416992188e+01
3.794929885864257812e+01
3.718316268920898438e+01
3.678790664672851562e+01
3.676440048217773438e+01
3.639237976074218750e+01
3.636940002441406250e+01
3.597439956665039062e+01
3.557939910888671875e+01
3.518439865112304688e+01
3.478950119018554688e+01
3.439450073242187500e+01
3.362563705444335938e+01
3.323037338256835938e+01
3.320949935913085938e+01
3.281449890136718750e+01
3.241960144042968750e+01
3.164941978454589844e+01
3.200504302978515625e+01
3.125389289855957031e+01
3.085862922668457031e+01
3.121583366394042969e+01
3.046310234069824219e+01
3.044459915161132812e+01
3.044459915161132812e+01
3.044459915161132812e+01
3.044459915161132812e+01
3.042741966247558594e+01
3.042768287658691406e+01
3.044459915161132812e+01
3.004969978332519531e+01
2.965469932556152344e+01
2.925970077514648438e+01
2.927530479431152344e+01
2.965469932556152344e+01
2.927477836608886719e+01
2.963988494873046875e+01
2.925970077514648438e+01
2.924541091918945312e+01
2.887872505187988281e+01
2.886470031738281250e+01
2.887819862365722656e+01
2.924646568298339844e+01
2.925970077514648438e+01
2.927240753173828125e+01
2.925970077514648438e+01
2.965469932556152344e+01
2.965469932556152344e+01
2.925970077514648438e+01
2.925970077514648438e+01
2.965469932556152344e+01
2.925970077514648438e+01
2.965469932556152344e+01
2.965469932556152344e+01
2.965469932556152344e+01
2.965469932556152344e+01
2.964515304565429688e+01
2.964541625976562500e+01
2.964567947387695312e+01
2.925970077514648438e+01
2.965469932556152344e+01
2.965469932556152344e+01
3.004173278808593750e+01
3.004969978332519531e+01
3.044459915161132812e+01
3.123460006713867188e+01
3.202460098266601562e+01
3.320285034179687500e+01
3.399950027465820312e+01
3.518439865112304688e+01
3.677025985717773438e+01
3.834429931640625000e+01
4.030853271484375000e+01
4.189413070678710938e+01
4.386929321289062500e+01
4.623491287231445312e+01
4.782389831542968750e+01
4.900478363037109375e+01
5.058879852294921875e+01
5.177021026611328125e+01
5.256370162963867188e+01
5.296166229248046875e+01
5.374860000610351562e+01
5.414360046386718750e+01
5.453860092163085938e+01
5.493360137939453125e+01
5.493360137939453125e+01
5.453998184204101562e+01
5.493360137939453125e+01
5.453860092163085938e+01
5.414360046386718750e+01
5.374860000610351562e+01
5.374860000610351562e+01
5.256370162963867188e+01
5.216823959350585938e+01
5.137797546386718750e+01
5.019281387329101562e+01
4.861264801025390625e+01
4.742890167236328125e+01
4.584899902343750000e+01
4.466400146484375000e+01
4.347679519653320312e+01
4.268653106689453125e+01
4.110919952392578125e+01
4.031610488891601562e+01
3.913430023193359375e+01
3.873567962646484375e+01
3.834041595458984375e+01
3.755429840087890625e+01
3.715498733520507812e+01
3.676440048217773438e+01
3.676440048217773438e+01
3.636940002441406250e+01
3.597439956665039062e+01
3.557939910888671875e+01
3.478950119018554688e+01
3.478950119018554688e+01
3.439450073242187500e+01
3.360449981689453125e+01
3.320949935913085938e+01
3.281449890136718750e+01
3.242716979980468750e+01
3.241176605224609375e+01
3.202460098266601562e+01
3.162960052490234375e+01
3.123460006713867188e+01
3.162071037292480469e+01
3.083959960937500000e+01
3.083959960937500000e+01
3.082992172241210938e+01
3.044459915161132812e+01
3.004969978332519531e+01
3.006016731262207031e+01
3.043387031555175781e+01
2.966569519042968750e+01
3.003844070434570312e+01
2.965469932556152344e+01
3.004969978332519531e+01
2.965469932556152344e+01
3.004969978332519531e+01
3.004969978332519531e+01
3.004969978332519531e+01
2.965469932556152344e+01
3.003633308410644531e+01
2.965469932556152344e+01
2.965469932556152344e+01
2.927385711669921875e+01
2.965469932556152344e+01
2.965469932556152344e+01
2.965469932556152344e+01
2.963949012756347656e+01
2.965469932556152344e+01
2.927543640136718750e+01
2.965469932556152344e+01
2.965469932556152344e+01
2.965469932556152344e+01
3.003290939331054688e+01
3.003264617919921875e+01
3.004969978332519531e+01
2.967228126525878906e+01
3.004969978332519531e+01
3.003159332275390625e+01
3.004969978332519531e+01
3.003106689453125000e+01
3.003080177307128906e+01
3.003053855895996094e+01
3.004969978332519531e+01
3.006938171386718750e+01
3.044459915161132812e+01
3.083959960937500000e+01
3.125507736206054688e+01
3.202460098266601562e+01
3.244059753417968750e+01
3.362576675415039062e+01
3.518439865112304688e+01
3.636940002441406250e+01
3.759841537475585938e+01
3.955161666870117188e+01
4.152678298950195312e+01
4.310694885253906250e+01
4.508211135864257812e+01
4.705727386474609375e+01
4.863753128051757812e+01
4.982270050048828125e+01
5.100795745849609375e+01
5.219312667846679688e+01
5.335369873046875000e+01
5.374860000610351562e+01
5.414360046386718750e+01
5.456408309936523438e+01
5.493360137939453125e+01
5.532860183715820312e+01
5.532860183715820312e+01
5.532860183715820312e+01
5.530179977416992188e+01
5.532860183715820312e+01
5.493360137939453125e+01
5.453860092163085938e+01
5.374860000610351562e+01
5.332558441162109375e+01
5.253532028198242188e+01
5.171642303466796875e+01
5.055989456176757812e+01
4.900880050659179688e+01
4.782389831542968750e+01
4.660921096801757812e+01
4.502904129028320312e+01
4.384387588500976562e+01
4.226362228393554688e+01
4.071419906616210938e+01
4.028818893432617188e+01
3.913430023193359375e+01
3.870775985717773438e+01
3.831249618530273438e+01
3.755429840087890625e+01
3.752198028564453125e+01
3.712680816650390625e+01
3.676440048217773438e+01
3.633628082275390625e+01
3.597439956665039062e+01
3.594075393676757812e+01
3.518439865112304688e+01
3.478950119018554688e+01
3.439450073242187500e+01
3.399950027465820312e+01
3.360449981689453125e+01
3.320949935913085938e+01
3.277901840209960938e+01
3.241960144042968750e+01
3.202460098266601562e+01
3.162960052490234375e+01
3.162960052490234375e+01
3.123460006713867188e+01
3.123460006713867188e+01
3.119726562500000000e+01
3.048219680786132812e+01
3.044459915161132812e+01
3.048272323608398438e+01
3.080121231079101562e+01
3.044459915161132812e+01
3.044459915161132812e+01
3.004969978332519531e+01
3.004969978332519531e+01
3.008939361572265625e+01
3.044459915161132812e+01
3.008992004394531250e+01
3.009018325805664062e+01
3.040385246276855469e+01
2.969572067260742188e+01
3.004969978332519531e+01
3.000815200805664062e+01
3.000788879394531250e+01
2.965469932556152344e+01
2.969703865051269531e+01
2.969730186462402344e+01
2.969756507873535156e+01
2.965469932556152344e+01
2.965469932556152344e+01
3.004969978332519531e+01
3.004969978332519531e+01
2.965469932556152344e+01
2.969914436340332031e+01
3.000499153137207031e+01
3.004969978332519531e+01
3.004969978332519531e+01
3.009518623352050781e+01
3.044459915161132812e+01
3.044459915161132812e+01
3.044459915161132812e+01
3.004969978332519531e+01
3.009650421142578125e+01
3.044459915161132812e+01
3.044459915161132812e+01
3.083959960937500000e+01
3.083959960937500000e+01
3.128273200988769531e+01
3.202460098266601562e+01
3.286315917968750000e+01
3.325842285156250000e+01
3.444368743896484375e+01
3.602384948730468750e+01
3.720909881591796875e+01
3.878927612304687500e+01
4.076443862915039062e+01
4.273960113525390625e+01
4.471476745605468750e+01
4.668992996215820312e+01
4.787519454956054688e+01
4.945535659790039062e+01
5.103560638427734375e+01
5.211661529541015625e+01
5.295869827270507812e+01
5.380120849609375000e+01
5.453860092163085938e+01
5.488046264648437500e+01
5.538198471069335938e+01
5.532860183715820312e+01
5.662135314941406250e+01
5.730350112915039062e+01
5.651350021362304688e+01
5.606378173828125000e+01
5.566853332519531250e+01
5.527335739135742188e+01
5.453860092163085938e+01
5.380437088012695312e+01
5.335369873046875000e+01
5.250740432739257812e+01
5.171714019775390625e+01
5.025062179565429688e+01
4.934671401977539062e+01
4.742890167236328125e+01
4.618638610839843750e+01
4.460612106323242188e+01
4.342095947265625000e+01
4.223571014404296875e+01
4.071419906616210938e+01
3.992419815063476562e+01
3.913430023193359375e+01
3.867984390258789062e+01
3.794929885864257812e+01
3.749433135986328125e+01
3.715940093994140625e+01
3.670388793945312500e+01
3.636940002441406250e+01
3.597439956665039062e+01
3.597439956665039062e+01
3.557939910888671875e+01
3.518439865112304688e+01
3.478950119018554688e+01
3.439450073242187500e+01
3.399950027465820312e+01
3.360449981689453125e+01
3.314635467529296875e+01
3.275110626220703125e+01
3.241960144042968750e+01
3.196066474914550781e+01
3.169379806518554688e+01
3.162960052490234375e+01
3.123460006713867188e+01
3.116961097717285156e+01
3.083959960937500000e+01
3.044459915161132812e+01
3.044459915161132812e+01
3.044459915161132812e+01
3.037831115722656250e+01
3.044459915161132812e+01
3.004969978332519531e+01
2.998260498046875000e+01
3.004969978332519531e+01
2.965469932556152344e+01
2.965469932556152344e+01
2.965469932556152344e+01
2.932811164855957031e+01
2.932837486267089844e+01
2.965469932556152344e+01
2.925970077514648438e+01
2.958523368835449219e+01
2.932942962646484375e+01
2.918970680236816406e+01
2.925970077514648438e+01
2.918918037414550781e+01
2.925970077514648438e+01
2.886470031738281250e+01
2.893600845336914062e+01
2.925970077514648438e+01
2.965469932556152344e+01
2.958259963989257812e+01
2.965469932556152344e+01
2.965469932556152344e+01
2.925970077514648438e+01
2.925970077514648438e+01
2.965469932556152344e+01
2.965469932556152344e+01
2.958075714111328125e+01
2.958049392700195312e+01
2.965469932556152344e+01
2.957996749877929688e+01
2.965469932556152344e+01
2.965469932556152344e+01
3.004969978332519531e+01
3.004969978332519531e+01
3.044459915161132812e+01
3.083959960937500000e+01
3.123460006713867188e+01
3.202460098266601562e+01
3.249668502807617188e+01
3.368186569213867188e+01
3.518439865112304688e+01
3.684229278564453125e+01
3.842245864868164062e+01
4.039762115478515625e+01
4.205654907226562500e+01
4.395302581787109375e+01
4.553321075439453125e+01
4.750837326049804688e+01
4.908853912353515625e+01
5.035380172729492188e+01
5.185396575927734375e+01
5.264422607421875000e+01
5.374860000610351562e+01
5.414360046386718750e+01
5.453860092163085938e+01
5.485202026367187500e+01
5.453860092163085938e+01
5.493360137939453125e+01
5.501597213745117188e+01
5.524596405029296875e+01
5.493360137939453125e+01
5.493360137939453125e+01
5.445517349243164062e+01
5.405991363525390625e+01
5.326974868774414062e+01
5.256370162963867188e+01
5.168922042846679688e+01
5.019380187988281250e+01
4.900880050659179688e+01
4.782389831542968750e+01
4.663890075683593750e+01
4.536820602416992188e+01
4.370198440551757812e+01
4.268909835815429688e+01
4.150419998168945312e+01
4.031919860839843750e+01
3.952930068969726562e+01
3.873929977416992188e+01
3.825666046142578125e+01
3.794929885864257812e+01
3.746615600585937500e+01
3.715940093994140625e+01
3.667570877075195312e+01
3.636940002441406250e+01
3.597439956665039062e+01
3.548991775512695312e+01
3.518439865112304688e+01
3.509441375732421875e+01
3.448477172851562500e+01
3.409003448486328125e+01
3.399950027465820312e+01
3.351343917846679688e+01
3.320949935913085938e+01
3.311791229248046875e+01
3.241960144042968750e+01
3.202460098266601562e+01
3.202460098266601562e+01
3.193195724487304688e+01
3.162960052490234375e+01
3.123460006713867188e+01
3.123460006713867188e+01
3.123460006713867188e+01
3.083959960937500000e+01
3.074537658691406250e+01
3.035013771057128906e+01
3.034987449645996094e+01
3.004969978332519531e+01
2.995442390441894531e+01
3.004969978332519531e+01
2.995389747619628906e+01
3.004969978332519531e+01
2.995336914062500000e+01
3.004969978332519531e+01
2.965469932556152344e+01
3.004969978332519531e+01
3.004969978332519531e+01
2.965469932556152344e+01
2.955678939819335938e+01
2.925970077514648438e+01
2.955626296997070312e+01
2.935840034484863281e+01
2.965469932556152344e+01
2.935892677307128906e+01
2.965469932556152344e+01
2.965469932556152344e+01
3.004969978332519531e+01
3.004969978332519531e+01
2.994915580749511719e+01
3.004969978332519531e+01
2.975577163696289062e+01
2.975603485107421875e+01
3.004969978332519531e+01
2.965469932556152344e+01
3.004969978332519531e+01
2.965469932556152344e+01
2.975735092163085938e+01
3.004969978332519531e+01
3.004969978332519531e+01
3.004969978332519531e+01
3.044459915161132812e+01
3.083959960937500000e+01
3.083959960937500000e+01
3.123460006713867188e+01
3.173435783386230469e+01
3.291952133178710938e+01
3.360449981689453125e+01
3.489502334594726562e+01
3.608021163940429688e+01
3.794929885864257812e+01
3.963561248779296875e+01
4.150419998168945312e+01
4.319096374511718750e+01
4.516613006591796875e+01
4.703390121459960938e+01
4.832655715942382812e+01
5.019380187988281250e+01
5.137870025634765625e+01
5.216870117187500000e+01
5.335369873046875000e+01
5.374860000610351562e+01
5.414360046386718750e+01
5.482410049438476562e+01
5.504336166381835938e+01
5.532860183715820312e+01
5.532860183715820312e+01
5.572349929809570312e+01
5.504441452026367188e+01
5.493360137939453125e+01
5.482225799560546875e+01
5.453860092163085938e+01
5.374860000610351562e+01
5.307083129882812500e+01
5.245130538940429688e+01
5.126606750488281250e+01
5.008087539672851562e+01
4.889564132690429688e+01
4.771044921875000000e+01
4.652521514892578125e+01
4.494502258300781250e+01
4.336486053466796875e+01
4.229410171508789062e+01
4.138943481445312500e+01
4.020417022705078125e+01
3.952930068969726562e+01
3.873929977416992188e+01
3.834429931640625000e+01
3.767038345336914062e+01
3.771663665771484375e+01
3.755429840087890625e+01
3.715940093994140625e+01
3.676440048217773438e+01
3.636940002441406250e+01
3.597439956665039062e+01
3.546147155761718750e+01
3.506623840332031250e+01
3.439450073242187500e+01
3.439450073242187500e+01
3.372348022460937500e+01
3.360449981689453125e+01
3.320949935913085938e+01
3.320949935913085938e+01
3.241960144042968750e+01
3.241960144042968750e+01
3.202460098266601562e+01
3.229877471923828125e+01
3.202460098266601562e+01
3.190324974060058594e+01
3.162960052490234375e+01
3.150772285461425781e+01
3.123460006713867188e+01
3.123460006713867188e+01
3.096226882934570312e+01
3.083959960937500000e+01
3.083959960937500000e+01
3.044459915161132812e+01
3.056832122802734375e+01
3.044459915161132812e+01
3.044459915161132812e+01
3.004969978332519531e+01
3.004969978332519531e+01
3.004969978332519531e+01
3.004969978332519531e+01
2.978026580810546875e+01
2.992387199401855469e+01
2.978079223632812500e+01
2.965469932556152344e+01
2.992308044433593750e+01
2.992281723022460938e+01
3.004969978332519531e+01
3.004969978332519531e+01
2.992202758789062500e+01
2.978263473510742188e+01
2.978289794921875000e+01
2.965469932556152344e+01
2.965469932556152344e+01
2.992071151733398438e+01
3.004969978332519531e+01
2.992018508911132812e+01
2.991991996765136719e+01
3.004969978332519531e+01
3.017997360229492188e+01
3.004969978332519531e+01
3.004969978332519531e+01
3.044459915161132812e+01
3.044459915161132812e+01
3.044459915161132812e+01
3.083959960937500000e+01
3.044459915161132812e+01
3.070718765258789062e+01
3.057727622985839844e+01
3.044459915161132812e+01
3.083959960937500000e+01
3.057806587219238281e+01
3.083959960937500000e+01
3.044459915161132812e+01
3.070534324645996094e+01
3.070508003234863281e+01
3.083959960937500000e+01
3.070455360412597656e+01
3.057991027832031250e+01
3.083959960937500000e+01
3.083959960937500000e+01
3.083959960937500000e+01
3.123460006713867188e+01
3.123460006713867188e+01
3.149271011352539062e+01
3.149244689941406250e+01
3.149218368530273438e+01
3.137228012084960938e+01
3.137254333496093750e+01
3.149139213562011719e+01
3.137306976318359375e+01
3.162960052490234375e+01
3.123460006713867188e+01
3.123460006713867188e+01
3.123460006713867188e+01
3.148981285095214844e+01
3.162960052490234375e+01
3.148928642272949219e+01
3.162960052490234375e+01
3.162960052490234375e+01
3.162960052490234375e+01
3.162960052490234375e+01
3.162960052490234375e+01
3.177149391174316406e+01
3.162960052490234375e+01
3.202460098266601562e+01
3.202460098266601562e+01
3.227665328979492188e+01
3.202460098266601562e+01
3.241960144042968750e+01
3.241960144042968750e+01
3.267053604125976562e+01
3.256382751464843750e+01
3.281449890136718750e+01
3.281449890136718750e+01
3.295955657958984375e+01
3.320949935913085938e+01
3.296008300781250000e+01
3.281449890136718750e+01
3.306339263916015625e+01
3.296087265014648438e+01
3.281449890136718750e+01
3.306260299682617188e+01
3.306233978271484375e+01
3.320949935913085938e+01
3.306180953979492188e+01
3.281449890136718750e+01
3.320949935913085938e+01
3.306101989746093750e+01
3.306075668334960938e+01
3.296350479125976562e+01
3.281449890136718750e+01
3.320949935913085938e+01
3.320949935913085938e+01
3.360449981689453125e+01
3.320949935913085938e+01
3.345391464233398438e+01
3.360449981689453125e+01
3.360449981689453125e+01
3.360449981689453125e+01
3.360449981689453125e+01
3.360449981689453125e+01
3.360449981689453125e+01
3.375693130493164062e+01
3.399950027465820312e+01
3.424154281616210938e+01
3.399950027465820312e+01
3.439450073242187500e+01
3.424075317382812500e+01
3.399950027465820312e+01
3.424022674560546875e+01
3.415403747558593750e+01
3.423970031738281250e+01
3.423943710327148438e+01
3.399950027465820312e+01
3.439450073242187500e+01
3.439450073242187500e+01
3.478950119018554688e+01
3.518439865112304688e+01
3.613104248046875000e+01
3.692130661010742188e+01
3.786864089965820312e+01
3.968669509887695312e+01
4.126689529418945312e+01
4.308409881591796875e+01
4.482222366333007812e+01
4.719238662719726562e+01
4.916754913330078125e+01
5.074781417846679688e+01
5.256370162963867188e+01
5.390814208984375000e+01
5.548836517333984375e+01
5.651350021362304688e+01
5.746382904052734375e+01
5.832780456542968750e+01
5.832754135131835938e+01
5.848839950561523438e+01
5.888339996337890625e+01
5.888339996337890625e+01
5.809339904785156250e+01
5.809339904785156250e+01
5.769850158691406250e+01
5.690850067138671875e+01
5.635053634643554688e+01
5.532860183715820312e+01
5.437510681152343750e+01
5.318994522094726562e+01
5.200468063354492188e+01
5.065523529052734375e+01
4.923925399780273438e+01
4.805409240722656250e+01
4.703390121459960938e+01
4.624399948120117188e+01
4.528840255737304688e+01
4.449813842773437500e+01
4.370797348022460938e+01
4.308409881591796875e+01
4.291744995117187500e+01
4.229410171508789062e+01
4.173202133178710938e+01
4.150419998168945312e+01
4.094149398803710938e+01
4.054623031616210938e+01
3.992419815063476562e+01
3.952930068969726562e+01
3.896554183959960938e+01
3.834429931640625000e+01
3.778001403808593750e+01
3.738479232788085938e+01
3.715940093994140625e+01
3.676440048217773438e+01
3.653973770141601562e+01
3.619879913330078125e+01
3.580353546142578125e+01
3.557939910888671875e+01
3.540800857543945312e+01
3.518439865112304688e+01
3.478950119018554688e+01
3.478950119018554688e+01
3.439450073242187500e+01
3.422179031372070312e+01
3.399950027465820312e+01
3.399950027465820312e+01
3.360449981689453125e+01
3.343073654174804688e+01
3.320949935913085938e+01
3.303520965576171875e+01
3.320949935913085938e+01
3.281449890136718750e+01
3.281449890136718750e+01
3.281449890136718750e+01
3.281449890136718750e+01
3.241960144042968750e+01
3.241960144042968750e+01
3.241960144042968750e+01
3.241960144042968750e+01
3.241960144042968750e+01
3.220178604125976562e+01
3.202460098266601562e+01
3.202460098266601562e+01
3.202460098266601562e+01
3.180784034729003906e+01
3.184609603881835938e+01
3.202460098266601562e+01
3.180862998962402344e+01
3.162960052490234375e+01
3.184504318237304688e+01
3.144977951049804688e+01
3.162960052490234375e+01
3.141494750976562500e+01
3.162960052490234375e+01
3.141547393798828125e+01
3.162960052490234375e+01
3.162960052490234375e+01
3.162960052490234375e+01
3.184267234802246094e+01
3.202460098266601562e+01
3.202460098266601562e+01
3.181231880187988281e+01
3.202460098266601562e+01
3.181284523010253906e+01
3.202460098266601562e+01
3.162960052490234375e+01
3.184056472778320312e+01
3.162960052490234375e+01
3.202460098266601562e+01
3.162960052490234375e+01
3.183951187133789062e+01
3.183924865722656250e+01
3.202460098266601562e+01
3.202460098266601562e+01
3.241960144042968750e+01
3.221100616455078125e+01
3.241960144042968750e+01
3.262761688232421875e+01
3.339669418334960938e+01
3.418695831298828125e+01
3.478950119018554688e+01
3.616238403320312500e+01
3.794929885864257812e+01
3.971776580810546875e+01
4.129797744750976562e+01
4.346217727661132812e+01
4.543760299682617188e+01
4.761846542358398438e+01
4.940380096435546875e+01
5.117384338378906250e+01
5.275405502319335938e+01
5.433422088623046875e+01
5.532860183715820312e+01
5.611849975585937500e+01
5.730350112915039062e+01
5.769850158691406250e+01
5.809339904785156250e+01
5.828559875488281250e+01
5.809339904785156250e+01
5.848839950561523438e+01
5.888339996337890625e+01
5.848839950561523438e+01
5.809339904785156250e+01
5.769850158691406250e+01
5.730350112915039062e+01
5.671419525146484375e+01
5.611849975585937500e+01
5.552871704101562500e+01
5.453860092163085938e+01
5.335369873046875000e+01
5.216870117187500000e+01
5.078791427612304688e+01
4.960264968872070312e+01
4.841748809814453125e+01
4.742890167236328125e+01
4.604705810546875000e+01
4.486179733276367188e+01
4.347909927368164062e+01
4.268909835815429688e+01
4.170120620727539062e+01
4.110919952392578125e+01
4.031919860839843750e+01
3.992419815063476562e+01
3.952930068969726562e+01
3.913430023193359375e+01
3.873929977416992188e+01
3.814913558959960938e+01
3.774919891357421875e+01
3.735398483276367188e+01
3.676440048217773438e+01
3.656351089477539062e+01
3.616824722290039062e+01
3.557939910888671875e+01
3.518439865112304688e+01
3.478950119018554688e+01
3.458729171752929688e+01
3.439450073242187500e+01
3.420223617553710938e+01
3.379650115966796875e+01
3.399950027465820312e+01
3.380802536010742188e+01
3.360449981689453125e+01
3.340044784545898438e+01
3.320949935913085938e+01
3.281449890136718750e+01
3.260971069335937500e+01
3.241960144042968750e+01
3.221423339843750000e+01
3.202460098266601562e+01
3.202460098266601562e+01
3.202460098266601562e+01
3.162960052490234375e+01
3.142291450500488281e+01
3.144154930114746094e+01
3.144181251525878906e+01
3.162960052490234375e+01
3.142186164855957031e+01
3.162960052490234375e+01
3.144286537170410156e+01
3.123460006713867188e+01
3.123460006713867188e+01
3.123460006713867188e+01
3.104891967773437500e+01
3.102501678466796875e+01
3.123460006713867188e+01
3.104970932006835938e+01
3.123460006713867188e+01
3.105023574829101562e+01
3.123460006713867188e+01
3.123460006713867188e+01
3.102317428588867188e+01
3.123460006713867188e+01
3.123460006713867188e+01
3.123460006713867188e+01
3.105208015441894531e+01
3.144734382629394531e+01
3.141659355163574219e+01
3.162960052490234375e+01
3.184313392639160156e+01
3.241960144042968750e+01
3.281449890136718750e+01
3.399950027465820312e+01
3.518439865112304688e+01
3.658425140380859375e+01
3.794929885864257812e+01
3.952930068969726562e+01
4.132484054565429688e+01
4.330000305175781250e+01
4.527516555786132812e+01
4.725033187866210938e+01
4.922549438476562500e+01
5.080575561523437500e+01
5.199092102050781250e+01
5.317618560791015625e+01
5.396634674072265625e+01
5.475661087036132812e+01
5.554681777954101562e+01
5.572349929809570312e+01
5.611849975585937500e+01
5.611849975585937500e+01
5.633782577514648438e+01
5.629391098022460938e+01
5.633835601806640625e+01
5.611849975585937500e+01
5.611849975585937500e+01
5.589785385131835938e+01
5.550264739990234375e+01
5.510742950439453125e+01
5.453860092163085938e+01
5.313200378417968750e+01
5.256370162963867188e+01
5.115653228759765625e+01
4.979880142211914062e+01
4.821889877319335938e+01
4.703390121459960938e+01
4.562572097778320312e+01
4.444046020507812500e+01
4.325529479980468750e+01
4.207008743286132812e+01
4.127986907958984375e+01
4.048960494995117188e+01
3.969939804077148438e+01
3.930418014526367188e+01
3.873929977416992188e+01
3.834429931640625000e+01
3.811838912963867188e+01
3.811812591552734375e+01
3.755429840087890625e+01
3.732765579223632812e+01
3.693243408203125000e+01
3.614216995239257812e+01
3.574690628051757812e+01
3.535164642333984375e+01
3.478950119018554688e+01
3.439450073242187500e+01
3.422804641723632812e+01
3.399950027465820312e+01
3.377042770385742188e+01
3.377016448974609375e+01
3.337490081787109375e+01
3.320949935913085938e+01
3.297937393188476562e+01
3.281449890136718750e+01
3.281449890136718750e+01
3.241960144042968750e+01
3.218841934204101562e+01
3.218815612792968750e+01
3.225630569458007812e+01
3.202460098266601562e+01
3.179236793518066406e+01
3.162960052490234375e+01
3.146735954284667969e+01
3.162960052490234375e+01
3.162960052490234375e+01
3.139604949951171875e+01
3.162960052490234375e+01
3.162960052490234375e+01
3.123460006713867188e+01
3.162960052490234375e+01
3.162960052490234375e+01
3.162960052490234375e+01
3.123460006713867188e+01
3.123460006713867188e+01
3.139368057250976562e+01
3.123460006713867188e+01
3.107604598999023438e+01
3.107631111145019531e+01
3.083959960937500000e+01
3.083959960937500000e+01
3.083959960937500000e+01
3.083959960937500000e+01
3.083959960937500000e+01
3.123460006713867188e+01
3.107815361022949219e+01
3.147341728210449219e+01
3.123460006713867188e+01
3.123460006713867188e+01
3.123460006713867188e+01
3.162960052490234375e+01
3.226473236083984375e+01
3.281449890136718750e+01
3.384516143798828125e+01
3.503036499023437500e+01
3.621558761596679688e+01
3.740079116821289062e+01
3.913430023193359375e+01
4.056117630004882812e+01
4.253634262084960938e+01
4.451150512695312500e+01
4.688166809082031250e+01
4.861389923095703125e+01
4.979880142211914062e+01
5.137870025634765625e+01
5.295869827270507812e+01
5.399268341064453125e+01
5.453860092163085938e+01
5.532860183715820312e+01
5.572349929809570312e+01
5.572349929809570312e+01
5.611849975585937500e+01
5.636416625976562500e+01
5.572349929809570312e+01
5.611849975585937500e+01
5.572349929809570312e+01
5.547684478759765625e+01
5.508161926269531250e+01
5.468635559082031250e+01
5.429109191894531250e+01
5.374860000610351562e+01
5.295869827270507812e+01
5.216870117187500000e+01
5.073523712158203125e+01
4.979880142211914062e+01
4.861389923095703125e+01
4.732519531250000000e+01
4.613973236083984375e+01
4.441411972045898438e+01
4.322895812988281250e+01
4.229410171508789062e+01
4.150419998168945312e+01
4.031919860839843750e+01
3.992419815063476562e+01
3.913430023193359375e+01
3.848757553100585938e+01
3.834429931640625000e+01
3.794929885864257812e+01
3.755429840087890625e+01
3.730158615112304688e+01
3.715940093994140625e+01
3.676440048217773438e+01
3.651083374023437500e+01
3.597439956665039062e+01
3.557939910888671875e+01
3.518439865112304688e+01
3.453488159179687500e+01
3.439450073242187500e+01
3.385964584350585938e+01
3.346490859985351562e+01
3.320949935913085938e+01
3.281449890136718750e+01
3.255836486816406250e+01
3.241960144042968750e+01
3.241960144042968750e+01
3.202460098266601562e+01
3.202460098266601562e+01
3.162960052490234375e+01
3.123460006713867188e+01
3.123460006713867188e+01
3.097629356384277344e+01
3.123460006713867188e+01
3.123460006713867188e+01
3.123460006713867188e+01
3.123460006713867188e+01
3.083959960937500000e+01
3.083959960937500000e+01
3.044459915161132812e+01
3.044459915161132812e+01
3.044459915161132812e+01
3.044459915161132812e+01
3.083959960937500000e+01
3.044459915161132812e+01
3.044459915161132812e+01
3.044459915161132812e+01
3.031189155578613281e+01
3.044459915161132812e+01
3.044459915161132812e+01
3.044459915161132812e+01
3.044459915161132812e+01
3.057602500915527344e+01
3.057576179504394531e+01
3.044459915161132812e+01
3.044459915161132812e+01
3.044459915161132812e+01
3.044459915161132812e+01
3.044459915161132812e+01
3.044459915161132812e+01
3.044459915161132812e+01
3.044459915161132812e+01
3.083959960937500000e+01
3.083959960937500000e+01
3.123460006713867188e+01
3.162960052490234375e+01
3.241960144042968750e+01
3.308202362060546875e+01
3.387228775024414062e+01
3.518439865112304688e+01
3.663771438598632812e+01
3.821788024902343750e+01
4.019304275512695312e+01
4.216823577880859375e+01
4.414340209960937500e+01
4.572363281250000000e+01
4.730379486083984375e+01
4.888399124145507812e+01
5.046422195434570312e+01
5.177370071411132812e+01
5.256370162963867188e+01
5.374860000610351562e+01
5.414360046386718750e+01
5.453860092163085938e+01
5.481060409545898438e+01
5.493360137939453125e+01
5.493360137939453125e+01
5.520639419555664062e+01
5.532860183715820312e+01
5.505527877807617188e+01
5.493360137939453125e+01
5.493360137939453125e+01
5.453860092163085938e+01
5.374860000610351562e+01
5.307906341552734375e+01
5.228879928588867188e+01
5.149853515625000000e+01
5.058879852294921875e+01
4.940380096435546875e+01
4.821889877319335938e+01
4.675768280029296875e+01
4.517752075195312500e+01
4.399232482910156250e+01
4.241209411621093750e+01
4.122692871093750000e+01
4.031919860839843750e+01
3.952930068969726562e+01
3.873929977416992188e+01
3.834429931640625000e+01
3.767071151733398438e+01
3.743817901611328125e+01
3.676440048217773438e+01
3.648502349853515625e+01
3.597439956665039062e+01
3.597439956665039062e+01
3.557939910888671875e+01
3.518439865112304688e+01
3.490377807617187500e+01
3.467545700073242188e+01
3.439450073242187500e+01
3.371801376342773438e+01
3.332275390625000000e+01
3.320949935913085938e+01
3.253229522705078125e+01
3.202460098266601562e+01
3.202460098266601562e+01
3.162960052490234375e+01
3.123460006713867188e+01
3.112319183349609375e+01
3.083959960937500000e+01
3.044459915161132812e+01
3.044459915161132812e+01
3.016002655029296875e+01
3.015976333618164062e+01
3.004969978332519531e+01
3.004969978332519531e+01
3.004969978332519531e+01
2.965469932556152344e+01
2.965469932556152344e+01
2.925970077514648438e+01
2.954645156860351562e+01
2.925970077514648438e+01
2.897242164611816406e+01
2.925970077514648438e+01
2.925970077514648438e+01
2.925970077514648438e+01
2.925970077514648438e+01
2.925970077514648438e+01
2.936584091186523438e+01
2.925970077514648438e+01
2.925970077514648438e+01
2.925970077514648438e+01
2.925970077514648438e+01
2.936452484130859375e+01
2.936426162719726562e+01
2.925970077514648438e+01
2.925970077514648438e+01
2.925970077514648438e+01
2.925970077514648438e+01
2.965469932556152344e+01
2.925970077514648438e+01
2.925970077514648438e+01
2.915724563598632812e+01
2.936189079284667969e+01
2.925970077514648438e+01
2.955303573608398438e+01
2.965469932556152344e+01
2.975583648681640625e+01
3.004969978332519531e+01
3.083959960937500000e+01
3.152925300598144531e+01
3.231951522827148438e+01
3.320949935913085938e+01
3.429494476318359375e+01
3.587510681152343750e+01
3.706037139892578125e+01
3.903553390502929688e+01
4.061569595336914062e+01
4.259085845947265625e+01
4.446807098388671875e+01
4.644350051879882812e+01
4.812145233154296875e+01
4.930661392211914062e+01
5.088687896728515625e+01
5.207204055786132812e+01
5.256370162963867188e+01
5.295869827270507812e+01
5.374860000610351562e+01
5.414360046386718750e+01
5.444325637817382812e+01
5.453860092163085938e+01
5.493360137939453125e+01
5.493360137939453125e+01
5.453860092163085938e+01
5.453860092163085938e+01
5.453860092163085938e+01
5.374860000610351562e+01
5.365538787841796875e+01
5.305167388916015625e+01
5.226140975952148438e+01
5.147114562988281250e+01
5.028598022460937500e+01
4.910071945190429688e+01
4.782389831542968750e+01
4.673029327392578125e+01
4.515012741088867188e+01
4.387409973144531250e+01
4.229410171508789062e+01
4.110919952392578125e+01
4.001427459716796875e+01
3.922411346435546875e+01
3.834429931640625000e+01
3.764358520507812500e+01
3.755429840087890625e+01
3.724813461303710938e+01
3.715940093994140625e+01
3.676440048217773438e+01
3.645736694335937500e+01
3.628169631958007812e+01
3.566683959960937500e+01
3.557939910888671875e+01
3.518439865112304688e+01
3.399950027465820312e+01
3.332360839843750000e+01
3.320949935913085938e+01
3.281449890136718750e+01
3.241960144042968750e+01
3.213765335083007812e+01
3.202460098266601562e+01
3.162960052490234375e+01
3.162960052490234375e+01
3.123460006713867188e+01
3.123460006713867188e+01
3.112312507629394531e+01
3.083959960937500000e+01
3.083959960937500000e+01
3.083959960937500000e+01
3.072917938232421875e+01
3.055475807189941406e+01
3.044459915161132812e+01
3.015930366516113281e+01
3.044459915161132812e+01
3.033552360534667969e+01
3.033578681945800781e+01
3.015824890136718750e+01
3.004969978332519531e+01
2.976275062561035156e+01
2.994191360473632812e+01
2.965469932556152344e+01
2.965469932556152344e+01
2.965469932556152344e+01
2.925970077514648438e+01
2.965469932556152344e+01
2.954849243164062500e+01
2.965469932556152344e+01
2.965469932556152344e+01
2.936511611938476562e+01
2.965469932556152344e+01
2.965469932556152344e+01
2.965469932556152344e+01
3.004969978332519531e+01
3.004969978332519531e+01
3.004969978332519531e+01
2.994612693786621094e+01
2.975800895690917969e+01
3.004969978332519531e+01
3.004969978332519531e+01
3.034210586547851562e+01
3.034236907958984375e+01
3.004969978332519531e+01
3.015140342712402344e+01
3.015114021301269531e+01
3.015087699890136719e+01
3.034368705749511719e+01
3.034395027160644531e+01
3.004969978332519531e+01
3.014982414245605469e+01
3.044459915161132812e+01
3.083959960937500000e+01
3.113524055480957031e+01
3.153050422668457031e+01
3.232076644897460938e+01
3.311093139648437500e+01
3.390119552612304688e+01
3.508638381958007812e+01
3.666662216186523438e+01
3.824678421020507812e+01
3.982697296142578125e+01
4.180221176147460938e+01
4.377737426757812500e+01
4.575253677368164062e+01
4.733270263671875000e+01
4.891288757324218750e+01
5.088812637329101562e+01
5.177370071411132812e+01
5.295869827270507812e+01
5.404871749877929688e+01
5.493360137939453125e+01
5.532860183715820312e+01
5.532860183715820312e+01
5.572349929809570312e+01
5.572349929809570312e+01
5.611849975585937500e+01
5.611849975585937500e+01
5.581627273559570312e+01
5.602598953247070312e+01
5.572349929809570312e+01
5.532860183715820312e+01
5.463032150268554688e+01
5.374860000610351562e+01
5.304989624023437500e+01
5.186463165283203125e+01
5.058879852294921875e+01
4.940380096435546875e+01
4.791403961181640625e+01
4.663890075683593750e+01
4.514861297607421875e+01
4.387409973144531250e+01
4.277818679809570312e+01
4.150419998168945312e+01
4.040776062011718750e+01
3.961757659912109375e+01
3.913430023193359375e+01
3.834429931640625000e+01
3.755429840087890625e+01
3.755429840087890625e+01
3.715940093994140625e+01
3.636940002441406250e+01
3.636940002441406250e+01
3.606058883666992188e+01
3.557939910888671875e+01
3.518439865112304688e+01
3.478950119018554688e+01
3.439450073242187500e+01
3.399950027465820312e+01
3.329410934448242188e+01
3.281449890136718750e+01
3.250366210937500000e+01
3.210842132568359375e+01
3.162960052490234375e+01
3.162960052490234375e+01
3.131762886047363281e+01
3.083959960937500000e+01
3.083959960937500000e+01
3.044459915161132812e+01
3.044459915161132812e+01
3.004969978332519531e+01
3.013112831115722656e+01
3.004969978332519531e+01
3.004969978332519531e+01
3.004969978332519531e+01
2.965469932556152344e+01
2.965469932556152344e+01
2.965469932556152344e+01
2.925970077514648438e+01
2.925970077514648438e+01
2.925970077514648438e+01
2.918088531494140625e+01
2.854825210571289062e+01
2.854798889160156250e+01
2.886470031738281250e+01
2.854746246337890625e+01
2.878720092773437500e+01
2.886470031738281250e+01
2.846969985961914062e+01
2.854640769958496094e+01
2.886470031738281250e+01
2.886470031738281250e+01
2.886470031738281250e+01
2.886470031738281250e+01
2.886470031738281250e+01
2.918457221984863281e+01
2.893956565856933594e+01
2.893930244445800781e+01
2.893903732299804688e+01
2.886470031738281250e+01
2.918588829040527344e+01
2.925970077514648438e+01
2.925970077514648438e+01
2.918667793273925781e+01
2.918694114685058594e+01
2.925970077514648438e+01
2.925970077514648438e+01
2.925970077514648438e+01
2.925970077514648438e+01
2.965469932556152344e+01
2.965469932556152344e+01
2.997878646850585938e+01
3.076894950866699219e+01
3.155921173095703125e+01
3.234947586059570312e+01
3.392963790893554688e+01
3.511481857299804688e+01
3.669506454467773438e+01
3.834429931640625000e+01
4.025039291381835938e+01
4.183065795898437500e+01
4.347909927368164062e+01
4.505899810791015625e+01
4.696614456176757812e+01
4.821889877319335938e+01
4.933657455444335938e+01
5.019380187988281250e+01
5.170700073242187500e+01
5.216870117187500000e+01
5.256370162963867188e+01
5.295869827270507812e+01
5.335369873046875000e+01
5.374860000610351562e+01
5.374860000610351562e+01
5.407874298095703125e+01
5.374860000610351562e+01
5.374860000610351562e+01
5.335369873046875000e+01
5.302250289916992188e+01
5.256370162963867188e+01
5.177370071411132812e+01
5.098379898071289062e+01
4.986154937744140625e+01
4.861389923095703125e+01
4.749112319946289062e+01
4.630594253540039062e+01
4.512069702148437500e+01
4.354053115844726562e+01
4.268909835815429688e+01
4.156510543823242188e+01
3.998484420776367188e+01
3.952930068969726562e+01
3.873929977416992188e+01
3.834429931640625000e+01
3.755429840087890625e+01
3.755429840087890625e+01
3.715940093994140625e+01
3.682320022583007812e+01
3.676440048217773438e+01
3.636940002441406250e+01
3.597439956665039062e+01
3.524214553833007812e+01
3.518439865112304688e+01
3.445171737670898438e+01
3.439450073242187500e+01
3.399950027465820312e+01
3.320949935913085938e+01
3.287066650390625000e+01
3.241960144042968750e+01
3.208023834228515625e+01
3.202460098266601562e+01
3.162960052490234375e+01
3.162960052490234375e+01
3.162960052490234375e+01
3.123460006713867188e+01
3.083959960937500000e+01
3.083959960937500000e+01
3.078606796264648438e+01
3.044459915161132812e+01
3.044459915161132812e+01
3.010242843627929688e+01
3.010216522216796875e+01
3.004969978332519531e+01
2.965469932556152344e+01
2.965469932556152344e+01
2.925970077514648438e+01
2.925970077514648438e+01
2.891559791564941406e+01
2.925970077514648438e+01
2.925970077514648438e+01
2.925970077514648438e+01
2.930954360961914062e+01
2.965469932556152344e+01
2.965469932556152344e+01
2.930875396728515625e+01
2.965469932556152344e+01
2.960617256164550781e+01
2.960643577575683594e+01
2.965469932556152344e+01
2.965469932556152344e+01
2.925970077514648438e+01
2.925970077514648438e+01
2.960775375366210938e+01
2.965469932556152344e+01
2.965469932556152344e+01
2.930585670471191406e+01
2.960880661010742188e+01
2.925970077514648438e+01
2.965469932556152344e+01
2.965469932556152344e+01
2.925970077514648438e+01
2.925970077514648438e+01
2.965469932556152344e+01
3.004969978332519531e+01
3.009347534179687500e+01
3.083959960937500000e+01
3.158633995056152344e+01
3.237660217285156250e+01
3.320949935913085938e+01
3.474703216552734375e+01
3.593219375610351562e+01
3.751236724853515625e+01
3.909262084960937500e+01
4.067278289794921875e+01
4.225295639038085938e+01
4.418723297119140625e+01
4.580837249755859375e+01
4.738853836059570312e+01
4.861389923095703125e+01
4.979880142211914062e+01
5.094422912597656250e+01
5.173439025878906250e+01
5.216870117187500000e+01
5.295869827270507812e+01
5.371009063720703125e+01
5.335369873046875000e+01
5.374860000610351562e+01
5.410587310791015625e+01
5.374860000610351562e+01
5.374860000610351562e+01
5.371166992187500000e+01
5.374860000610351562e+01
5.299511337280273438e+01
5.256370162963867188e+01
5.216870117187500000e+01
5.098379898071289062e+01
5.019380187988281250e+01
4.900880050659179688e+01
4.782389831542968750e+01
4.627856063842773438e+01
4.469830322265625000e+01
4.387409973144531250e+01
4.232787704467773438e+01
4.150419998168945312e+01
4.035245132446289062e+01
3.992419815063476562e+01
3.877202606201171875e+01
3.834429931640625000e+01
3.794929885864257812e+01
3.791736602783203125e+01
3.755429840087890625e+01
3.715940093994140625e+01
3.676440048217773438e+01
3.636940002441406250e+01
3.600501632690429688e+01
3.557939910888671875e+01
3.481958389282226562e+01
3.478950119018554688e+01
3.402906417846679688e+01
3.363380050659179688e+01
3.320949935913085938e+01
3.284327316284179688e+01
3.241960144042968750e+01
3.202460098266601562e+01
3.202460098266601562e+01
3.162960052490234375e+01
3.126205635070800781e+01
3.160240554809570312e+01
3.123460006713867188e+01
3.160293388366699219e+01
3.083959960937500000e+01
3.120845985412597656e+01
3.083959960937500000e+01
3.083959960937500000e+01
3.044459915161132812e+01
3.044459915161132812e+01
3.044459915161132812e+01
3.004969978332519531e+01
3.042030906677246094e+01
3.004969978332519531e+01
3.004969978332519531e+01
3.004969978332519531e+01
3.004969978332519531e+01
3.004969978332519531e+01
2.967741584777832031e+01
2.965469932556152344e+01
3.004969978332519531e+01
3.004969978332519531e+01
3.044459915161132812e+01
3.004969978332519531e+01
3.044459915161132812e+01
3.004969978332519531e+01
3.004969978332519531e+01
3.042425918579101562e+01
3.006977653503417969e+01
3.044459915161132812e+01
3.004969978332519531e+01
3.004969978332519531e+01
3.004969978332519531e+01
3.042583847045898438e+01
3.004969978332519531e+01
3.004969978332519531e+01
3.006767082214355469e+01
3.004969978332519531e+01
3.004969978332519531e+01
3.044459915161132812e+01
3.044459915161132812e+01
3.083959960937500000e+01
3.123460006713867188e+01
3.202460098266601562e+01
3.281449890136718750e+01
3.360449981689453125e+01
3.478950119018554688e+01
3.635432052612304688e+01
3.755429840087890625e+01
3.913430023193359375e+01
4.109491348266601562e+01
4.307007598876953125e+01
4.466400146484375000e+01
4.662540435791015625e+01
4.821889877319335938e+01
5.018082809448242188e+01
5.097109222412109375e+01
5.216870117187500000e+01
5.335369873046875000e+01
5.374860000610351562e+01
5.453860092163085938e+01
5.493360137939453125e+01
5.531747055053710938e+01
5.571263885498046875e+01
5.572349929809570312e+01
5.572349929809570312e+01
5.533867263793945312e+01
5.571369171142578125e+01
5.493360137939453125e+01
5.454788589477539062e+01
5.414360046386718750e+01
5.335369873046875000e+01
5.217719268798828125e+01
5.137870025634765625e+01
5.058879852294921875e+01
4.901650238037109375e+01
4.782389831542968750e+01
4.625117492675781250e+01
4.506591415405273438e+01
4.388074874877929688e+01
4.269548797607421875e+01
4.151032257080078125e+01
4.071419906616210938e+01
3.992419815063476562e+01
3.913430023193359375e+01
3.834429931640625000e+01
3.834429931640625000e+01
3.755429840087890625e+01
3.755429840087890625e+01
3.715940093994140625e+01
3.676440048217773438e+01
3.637289047241210938e+01
3.597762680053710938e+01
3.557939910888671875e+01
3.479489898681640625e+01
3.439693450927734375e+01
3.439450073242187500e+01
3.399950027465820312e+01
3.321114730834960938e+01
3.281449890136718750e+01
3.241960144042968750e+01
3.241960144042968750e+01
3.163019180297851562e+01
3.202426910400390625e+01
3.123460006713867188e+01
3.123460006713867188e+01
3.123413848876953125e+01
3.083959960937500000e+01
3.044459915161132812e+01
3.044585037231445312e+01
3.083808517456054688e+01
3.005147743225097656e+01
3.044256019592285156e+01
3.004969978332519531e+01
3.004969978332519531e+01
3.004969978332519531e+01
3.005279350280761719e+01
3.004969978332519531e+01
3.004969978332519531e+01
2.965469932556152344e+01
2.965469932556152344e+01
2.965028762817382812e+01
2.926437568664550781e+01
2.964976119995117188e+01
2.965469932556152344e+01
2.965469932556152344e+01
2.965469932556152344e+01
2.964870834350585938e+01
2.965469932556152344e+01
2.965469932556152344e+01
2.926648139953613281e+01
2.925970077514648438e+01
2.926700782775878906e+01
2.965469932556152344e+01
2.966253471374511719e+01
2.966279792785644531e+01
2.965469932556152344e+01
2.965469932556152344e+01
3.004081153869628906e+01
3.004969978332519531e+01
3.004969978332519531e+01
2.965469932556152344e+01
2.965469932556152344e+01
3.003949356079101562e+01
2.965469932556152344e+01
3.004969978332519531e+01
3.004969978332519531e+01
3.045586013793945312e+01
3.123460006713867188e+01
3.164138603210449219e+01
3.281449890136718750e+01
3.322181320190429688e+01
3.478950119018554688e+01
3.597439956665039062e+01
3.717250061035156250e+01
3.875266647338867188e+01
4.072782897949218750e+01
4.268909835815429688e+01
4.428315734863281250e+01
4.625841522216796875e+01
4.783858489990234375e+01
4.941874694824218750e+01
5.098379898071289062e+01
5.180464553833007812e+01
5.297443771362304688e+01
5.414360046386718750e+01
5.455486297607421875e+01
5.495012664794921875e+01
5.532860183715820312e+01
5.534564971923828125e+01
5.572349929809570312e+01
5.572349929809570312e+01
5.534643936157226562e+01
5.532860183715820312e+01
5.532860183715820312e+01
5.453860092163085938e+01
5.414360046386718750e+01
5.335369873046875000e+01
5.256370162963867188e+01
5.137870025634765625e+01
5.019380187988281250e+01
4.938358688354492188e+01
4.780342102050781250e+01
4.661816406250000000e+01
4.543299484252929688e+01
4.385283279418945312e+01
4.266756820678710938e+01
4.148240661621093750e+01
3.992419815063476562e+01
3.913430023193359375e+01
3.873929977416992188e+01
3.794929885864257812e+01
3.755429840087890625e+01
3.715940093994140625e+01
3.715940093994140625e+01
3.676440048217773438e+01
3.636940002441406250e+01
3.597439956665039062e+01
3.555470657348632812e+01
3.518439865112304688e+01
3.515918731689453125e+01
3.476401901245117188e+01
3.436875534057617188e+01
3.399950027465820312e+01
3.320949935913085938e+01
3.281449890136718750e+01
3.241960144042968750e+01
3.202460098266601562e+01
3.199727439880371094e+01
3.162960052490234375e+01
3.123460006713867188e+01
3.083959960937500000e+01
3.120622062683105469e+01
3.083959960937500000e+01
3.044459915161132812e+01
3.004969978332519531e+01
3.007912445068359375e+01
3.004969978332519531e+01
3.004969978332519531e+01
2.965469932556152344e+01
2.965469932556152344e+01
2.965469932556152344e+01
2.965469932556152344e+01
2.925970077514648438e+01
2.965469932556152344e+01
2.925970077514648438e+01
2.925970077514648438e+01
2.922737121582031250e+01
2.886470031738281250e+01
2.889755630493164062e+01
2.889781951904296875e+01
2.886470031738281250e+01
2.889834594726562500e+01
2.925970077514648438e+01
2.929387283325195312e+01
2.929413604736328125e+01
2.929439926147460938e+01
3.004969978332519531e+01
3.004969978332519531e+01
3.001420974731445312e+01
2.969045257568359375e+01
2.969071769714355469e+01
3.001342010498046875e+01
3.001315689086914062e+01
2.969150733947753906e+01
3.004969978332519531e+01
3.004969978332519531e+01
2.965469932556152344e+01
2.965469932556152344e+01
3.004969978332519531e+01
3.004969978332519531e+01
3.004969978332519531e+01
3.044459915161132812e+01
3.083959960937500000e+01
3.083959960937500000e+01
3.123460006713867188e+01
3.202460098266601562e+01
3.285473251342773438e+01
3.364499282836914062e+01
3.522515869140625000e+01
3.645144271850585938e+01
3.834429931640625000e+01
3.996574783325195312e+01
4.194100189208984375e+01
4.391616439819335938e+01
4.589133834838867188e+01
4.747150039672851562e+01
4.905166625976562500e+01
5.058879852294921875e+01
5.142209243774414062e+01
5.260735321044921875e+01
5.374860000610351562e+01
5.414360046386718750e+01
5.453860092163085938e+01
5.493360137939453125e+01
5.493360137939453125e+01
5.497883605957031250e+01
5.488810348510742188e+01
5.458436203002929688e+01
5.453860092163085938e+01
5.449230957031250000e+01
5.414360046386718750e+01
5.330688476562500000e+01
5.256370162963867188e+01
5.177370071411132812e+01
5.093619537353515625e+01
4.975093078613281250e+01
4.856576919555664062e+01
4.742890167236328125e+01
4.619533920288085938e+01
4.461507797241210938e+01
4.308409881591796875e+01
4.229410171508789062e+01
4.150419998168945312e+01
4.031919860839843750e+01
3.952930068969726562e+01
3.873929977416992188e+01
3.829353332519531250e+01
3.755429840087890625e+01
3.715940093994140625e+01
3.710784530639648438e+01
3.636940002441406250e+01
3.597439956665039062e+01
3.592205429077148438e+01
3.557939910888671875e+01
3.518439865112304688e+01
3.473636245727539062e+01
3.434109878540039062e+01
3.399950027465820312e+01
3.326342773437500000e+01
3.320949935913085938e+01
3.281449890136718750e+01
3.241960144042968750e+01
3.196961975097656250e+01
3.162960052490234375e+01
3.123460006713867188e+01
3.117882919311523438e+01
3.117856597900390625e+01
3.089589691162109375e+01
3.050115966796875000e+01
3.078277587890625000e+01
3.044459915161132812e+01
3.044459915161132812e+01
3.038700103759765625e+01
3.010756301879882812e+01
3.004969978332519531e+01
3.004969978332519531e+01
3.004969978332519531e+01
3.004969978332519531e+01
3.004969978332519531e+01
2.999024200439453125e+01
2.998997879028320312e+01
2.965469932556152344e+01
2.965469932556152344e+01
3.004969978332519531e+01
3.004969978332519531e+01
2.971573829650878906e+01
3.004969978332519531e+01
2.998813629150390625e+01
2.998787307739257812e+01
3.004969978332519531e+01
2.965469932556152344e+01
3.004969978332519531e+01
2.965469932556152344e+01
2.971784400939941406e+01
2.965469932556152344e+01
2.965469932556152344e+01
2.971863555908203125e+01
2.965469932556152344e+01
2.965469932556152344e+01
3.004969978332519531e+01
2.965469932556152344e+01
3.004969978332519531e+01
3.004969978332519531e+01
3.004969978332519531e+01
3.044459915161132812e+01
3.083959960937500000e+01
3.123460006713867188e+01
3.169643211364746094e+01
3.320949935913085938e+01
3.406686019897460938e+01
3.525202178955078125e+01
3.683228683471679688e+01
3.841244888305664062e+01
4.038761138916015625e+01
4.196785736083984375e+01
4.433794021606445312e+01
4.631318664550781250e+01
4.789336395263671875e+01
4.947352981567382812e+01
5.065879440307617188e+01
5.191421127319335938e+01
5.263422012329101562e+01
5.335369873046875000e+01
5.414360046386718750e+01
5.446728897094726562e+01
5.414360046386718750e+01
5.414360046386718750e+01
5.414360046386718750e+01
5.414360046386718750e+01
5.414360046386718750e+01
5.382149124145507812e+01
5.335369873046875000e+01
5.295869827270507812e+01
5.256370162963867188e+01
5.209475708007812500e+01
5.130451202392578125e+01
5.019380187988281250e+01
4.932906723022460938e+01
4.814390182495117188e+01
4.656365966796875000e+01
4.505899810791015625e+01
4.387409973144531250e+01
4.268909835815429688e+01
4.182288742065429688e+01
4.063762283325195312e+01
3.952930068969726562e+01
3.873929977416992188e+01
3.794929885864257812e+01
3.755429840087890625e+01
3.715940093994140625e+01
3.676440048217773438e+01
3.676440048217773438e+01
3.629071426391601562e+01
3.597439956665039062e+01
3.550019073486328125e+01
3.518439865112304688e+01
3.478950119018554688e+01
3.478950119018554688e+01
3.431423568725585938e+01
3.360449981689453125e+01
3.312870788574218750e+01
3.273346710205078125e+01
3.241960144042968750e+01
3.202460098266601562e+01
3.162960052490234375e+01
3.123460006713867188e+01
3.123460006713867188e+01
3.083959960937500000e+01
3.083959960937500000e+01
3.083959960937500000e+01
3.075617599487304688e+01
3.052828788757324219e+01
3.044459915161132812e+01
3.036040687561035156e+01
3.004969978332519531e+01
3.004969978332519531e+01
3.004969978332519531e+01
2.973996925354003906e+01
2.965469932556152344e+01
2.956890487670898438e+01
2.934575843811035156e+01
2.934602165222167969e+01
2.934628486633300781e+01
2.956785202026367188e+01
2.956758880615234375e+01
2.934707450866699219e+01
2.956706047058105469e+01
2.925970077514648438e+01
2.925970077514648438e+01
2.965469932556152344e+01
2.965469932556152344e+01
2.965469932556152344e+01
2.996048164367675781e+01
2.996021842956542969e+01
2.974444580078125000e+01
3.004969978332519531e+01
3.004969978332519531e+01
2.995916366577148438e+01
2.965469932556152344e+01
3.004969978332519531e+01
2.965469932556152344e+01
2.965469932556152344e+01
3.004969978332519531e+01
3.004969978332519531e+01
3.035224342346191406e+01
3.044459915161132812e+01
3.044459915161132812e+01
3.053776931762695312e+01
3.132803344726562500e+01
3.211829757690429688e+01
3.281449890136718750e+01
3.369872283935546875e+01
3.488396453857421875e+01
3.636940002441406250e+01
3.804431152343750000e+01
3.992419815063476562e+01
4.159973907470703125e+01
4.357490158081054688e+01
4.515506744384765625e+01
4.683156204223632812e+01
4.871046829223632812e+01
5.019380187988281250e+01
5.108089447021484375e+01
5.256370162963867188e+01
5.335369873046875000e+01
5.374860000610351562e+01
5.424177551269531250e+01
5.493360137939453125e+01
5.493360137939453125e+01
5.483463668823242188e+01
5.532860183715820312e+01
5.493360137939453125e+01
5.493360137939453125e+01
5.453860092163085938e+01
5.453860092163085938e+01
5.414360046386718750e+01
5.335369873046875000e+01
5.295869827270507812e+01
5.206736373901367188e+01
5.127712631225585938e+01
4.979880142211914062e+01
4.861389923095703125e+01
4.772151184082031250e+01
4.614134979248046875e+01
4.466400146484375000e+01
4.347909927368164062e+01
4.219068527221679688e+01
4.100549697875976562e+01
4.021523284912109375e+01
3.942506790161132812e+01
3.844879531860351562e+01
3.755429840087890625e+01
3.755429840087890625e+01
3.686968612670898438e+01
3.665885162353515625e+01
3.665858840942382812e+01
3.597439956665039062e+01
3.557939910888671875e+01
3.557939910888671875e+01
3.518439865112304688e+01
3.478950119018554688e+01
3.399950027465820312e+01
3.360449981689453125e+01
3.320949935913085938e+01
3.270634460449218750e+01
3.241960144042968750e+01
3.202460098266601562e+01
3.191562843322753906e+01
3.162960052490234375e+01
3.123460006713867188e+01
3.083959960937500000e+01
3.083959960937500000e+01
3.044459915161132812e+01
3.044459915161132812e+01
3.033381271362304688e+01
3.004969978332519531e+01
3.004969978332519531e+01
2.993809318542480469e+01
2.965469932556152344e+01
2.965469932556152344e+01
2.954230308532714844e+01
2.937236022949218750e+01
2.937262344360351562e+01
2.937288665771484375e+01
2.925970077514648438e+01
2.954098701477050781e+01
2.925970077514648438e+01
2.925970077514648438e+01
2.925970077514648438e+01
2.897946739196777344e+01
2.925970077514648438e+01
2.925970077514648438e+01
2.898025703430175781e+01
2.886470031738281250e+01
2.925970077514648438e+01
2.925970077514648438e+01
2.886470031738281250e+01
2.914282608032226562e+01
2.925970077514648438e+01
2.925970077514648438e+01
2.925970077514648438e+01
2.937762641906738281e+01
2.965469932556152344e+01
2.925970077514648438e+01
2.965469932556152344e+01
2.953571891784667969e+01
2.953545570373535156e+01
2.953519248962402344e+01
2.965469932556152344e+01
2.937973403930664062e+01
2.965469932556152344e+01
3.004969978332519531e+01
3.044459915161132812e+01
3.123460006713867188e+01
3.175095176696777344e+01
3.293611526489257812e+01
3.412137603759765625e+01
3.530654144287109375e+01
3.715940093994140625e+01
3.886196899414062500e+01
4.044213104248046875e+01
4.241729354858398438e+01
4.412098312377929688e+01
4.597272109985351562e+01
4.782389831542968750e+01
4.873811721801757812e+01
5.031830978393554688e+01
5.150347518920898438e+01
5.229373931884765625e+01
5.295869827270507812e+01
5.374860000610351562e+01
5.387442779541015625e+01
5.414360046386718750e+01
5.453860092163085938e+01
5.480698013305664062e+01
5.453860092163085938e+01
5.480645370483398438e+01
5.466600799560546875e+01
5.453860092163085938e+01
5.401566314697265625e+01
5.374860000610351562e+01
5.295869827270507812e+01
5.203997421264648438e+01
5.111275482177734375e+01
5.006454849243164062e+01
4.900880050659179688e+01
4.769412231445312500e+01
4.650889205932617188e+01
4.492869567871093750e+01
4.374353027343750000e+01
4.268909835815429688e+01
4.150419998168945312e+01
4.058283996582031250e+01
3.979261016845703125e+01
3.873929977416992188e+01
3.834429931640625000e+01
3.755429840087890625e+01
3.742165756225585938e+01
3.715940093994140625e+01
3.715940093994140625e+01
3.715940093994140625e+01
3.663066864013671875e+01
3.597439956665039062e+01
3.544514465332031250e+01
