4.368973541259765625e+01
4.229410171508789062e+01
4.110919952392578125e+01
3.992419815063476562e+01
3.913430023193359375e+01
3.755429840087890625e+01
3.676440048217773438e+01
3.597439956665039062e+01
3.557939910888671875e+01
3.478950119018554688e+01
3.439450073242187500e+01
3.399950027465820312e+01
3.360449981689453125e+01
3.360449981689453125e+01
3.320949935913085938e+01
3.281449890136718750e+01
3.281449890136718750e+01
3.281449890136718750e+01
3.241960144042968750e+01
3.241960144042968750e+01
3.222996902465820312e+01
3.202460098266601562e+01
3.183444213867187500e+01
3.162960052490234375e+01
3.162960052490234375e+01
3.142554855346679688e+01
3.123460006713867188e+01
3.123460006713867188e+01
3.123460006713867188e+01
3.103160285949707031e+01
3.083959960937500000e+01
3.103212928771972656e+01
3.083959960937500000e+01
3.083959960937500000e+01
3.044459915161132812e+01
3.083959960937500000e+01
3.083959960937500000e+01
3.083959960937500000e+01
3.063897323608398438e+01
3.083959960937500000e+01
3.044459915161132812e+01
3.063976287841796875e+01
3.044459915161132812e+01
3.083959960937500000e+01
3.083959960937500000e+01
3.064338302612304688e+01
3.083959960937500000e+01
3.083959960937500000e+01
3.083959960937500000e+01
3.083959960937500000e+01
3.083959960937500000e+01
3.103680419921875000e+01
3.103654098510742188e+01
3.103627777099609375e+01
3.123460006713867188e+01
3.143345069885253906e+01
3.162960052490234375e+01
3.162960052490234375e+01
3.162960052490234375e+01
3.162960052490234375e+01
3.162960052490234375e+01
3.162960052490234375e+01
3.202460098266601562e+01
3.202460098266601562e+01
3.241960144042968750e+01
3.241960144042968750e+01
3.281449890136718750e+01
3.320949935913085938e+01
3.380677413940429688e+01
3.420203781127929688e+01
3.578219985961914062e+01
3.736241149902343750e+01
3.894262695312500000e+01
4.131278991699218750e+01
4.428175735473632812e+01
4.684301757812500000e+01
4.981256103515625000e+01
5.276834487915039062e+01
5.592840576171875000e+01
5.908856964111328125e+01
6.085829925537109375e+01
6.264394378662109375e+01
6.461916351318359375e+01
6.499692535400390625e+01
6.520310211181640625e+01
6.499639892578125000e+01
6.420618438720703125e+01
6.302092361450195312e+01
6.183575820922851562e+01
6.065049362182617188e+01
5.946533203125000000e+01
5.828006744384765625e+01
5.730350112915039062e+01
5.611849975585937500e+01
5.511948013305664062e+01
5.414360046386718750e+01
5.314405059814453125e+01
5.216870117187500000e+01
5.137870025634765625e+01
4.998336029052734375e+01
4.919309997558593750e+01
4.800793457031250000e+01
4.721767044067382812e+01
4.584899902343750000e+01
4.445224380493164062e+01
4.287208175659179688e+01
4.129191970825195312e+01
4.050165557861328125e+01
3.931649017333984375e+01
3.852622604370117188e+01
3.734101867675781250e+01
3.655080032348632812e+01
3.557939910888671875e+01
3.518439865112304688e+01
3.478950119018554688e+01
3.417984771728515625e+01
3.399950027465820312e+01
3.360449981689453125e+01
3.342494201660156250e+01
3.320949935913085938e+01
3.320949935913085938e+01
3.320949935913085938e+01
3.299300384521484375e+01
3.281449890136718750e+01
3.281449890136718750e+01
3.259726715087890625e+01
3.241960144042968750e+01
3.220178604125976562e+01
3.202460098266601562e+01
3.162960052490234375e+01
3.162960052490234375e+01
3.162960052490234375e+01
3.141047096252441406e+01
3.123460006713867188e+01
3.123460006713867188e+01
3.123460006713867188e+01
3.083959960937500000e+01
3.083959960937500000e+01
3.044459915161132812e+01
3.066557312011718750e+01
3.061836242675781250e+01
3.066609954833984375e+01
3.044459915161132812e+01
3.044459915161132812e+01
3.083959960937500000e+01
3.044459915161132812e+01
3.083959960937500000e+01
3.083959960937500000e+01
3.083959960937500000e+01
3.101099205017089844e+01
3.101072883605957031e+01
3.106373405456542969e+01
3.101020240783691406e+01
3.123460006713867188e+01
3.123460006713867188e+01
3.123460006713867188e+01
3.140415000915527344e+01
3.146031379699707031e+01
3.162960052490234375e+01
3.202460098266601562e+01
3.162960052490234375e+01
3.185636711120605469e+01
3.202460098266601562e+01
3.202460098266601562e+01
3.219204330444335938e+01
3.202460098266601562e+01
3.241960144042968750e+01
3.304284667968750000e+01
3.320949935913085938e+01
3.422837448120117188e+01
3.518439865112304688e+01
3.659880065917968750e+01
3.817896652221679688e+01
4.054912948608398438e+01
4.314948272705078125e+01
4.568445587158203125e+01
4.844961929321289062e+01
5.160968017578125000e+01
5.460609054565429688e+01
5.753500747680664062e+01
5.927840042114257812e+01
6.148533630371093750e+01
6.346049880981445312e+01
6.378563690185546875e+01
6.425102233886718750e+01
6.441320037841796875e+01
6.417984771728515625e+01
6.322819900512695312e+01
6.243830108642578125e+01
6.125329971313476562e+01
5.983399581909179688e+01
5.864873123168945312e+01
5.730350112915039062e+01
5.611849975585937500e+01
5.509313964843750000e+01
5.430287551879882812e+01
5.311771392822265625e+01
5.216870117187500000e+01
5.137870025634765625e+01
5.035202407836914062e+01
4.916675949096679688e+01
4.798159790039062500e+01
4.719133377075195312e+01
4.561117172241210938e+01
4.442590713500976562e+01
4.308409881591796875e+01
4.189920043945312500e+01
4.071419906616210938e+01
3.952930068969726562e+01
3.849988937377929688e+01
3.755429840087890625e+01
3.676440048217773438e+01
3.573419952392578125e+01
3.533893585205078125e+01
3.478950119018554688e+01
3.439450073242187500e+01
3.399950027465820312e+01
3.360449981689453125e+01
3.360449981689453125e+01
3.320949935913085938e+01
3.296719360351562500e+01
3.281449890136718750e+01
3.281449890136718750e+01
3.281449890136718750e+01
3.241960144042968750e+01
3.241960144042968750e+01
3.202460098266601562e+01
3.202460098266601562e+01
3.202460098266601562e+01
3.162960052490234375e+01
3.138465881347656250e+01
3.147980499267578125e+01
3.138413238525390625e+01
3.123460006713867188e+01
3.123460006713867188e+01
3.083959960937500000e+01
3.083959960937500000e+01
3.098781585693359375e+01
3.098755264282226562e+01
3.123460006713867188e+01
3.098702621459960938e+01
3.083959960937500000e+01
3.083959960937500000e+01
3.083959960937500000e+01
3.083959960937500000e+01
3.069349098205566406e+01
3.069375419616699219e+01
3.069401741027832031e+01
3.083959960937500000e+01
3.098465538024902344e+01
3.098439216613769531e+01
3.109007263183593750e+01
3.123460006713867188e+01
3.083959960937500000e+01
3.123460006713867188e+01
3.123460006713867188e+01
3.123460006713867188e+01
3.162960052490234375e+01
3.148691558837890625e+01
3.162960052490234375e+01
3.202460098266601562e+01
3.162960052490234375e+01
3.202460098266601562e+01
3.188323211669921875e+01
3.202460098266601562e+01
3.202460098266601562e+01
3.267395782470703125e+01
3.320949935913085938e+01
3.399950027465820312e+01
3.504464721679687500e+01
3.676440048217773438e+01
3.860004043579101562e+01
4.057520294189453125e+01
4.308409881591796875e+01
4.636199569702148438e+01
4.912742233276367188e+01
5.189281082153320312e+01
5.505323791503906250e+01
5.795601654052734375e+01
6.032617950439453125e+01
6.164830017089843750e+01
6.309157180786132812e+01
6.441320037841796875e+01
6.441320037841796875e+01
6.401820373535156250e+01
6.401820373535156250e+01
6.296850967407226562e+01
6.178334808349609375e+01
6.059808349609375000e+01
5.941291809082031250e+01
5.822765731811523438e+01
5.730350112915039062e+01
5.585723114013671875e+01
5.493360137939453125e+01
5.388180160522460938e+01
5.295869827270507812e+01
5.177370071411132812e+01
5.098379898071289062e+01
5.019380187988281250e+01
4.874575424194335938e+01
4.756052398681640625e+01
4.663890075683593750e+01
4.558509445190429688e+01
4.426900100708007812e+01
4.281966781616210938e+01
4.150419998168945312e+01
4.031919860839843750e+01
3.952930068969726562e+01
3.834429931640625000e+01
3.755429840087890625e+01
3.649839019775390625e+01
3.570812606811523438e+01
3.491793060302734375e+01
3.439450073242187500e+01
3.412743377685546875e+01
3.399950027465820312e+01
3.360449981689453125e+01
3.320949935913085938e+01
3.320949935913085938e+01
3.281449890136718750e+01
3.281449890136718750e+01
3.241960144042968750e+01
3.254539489746093750e+01
3.241960144042968750e+01
3.214990234375000000e+01
3.241960144042968750e+01
3.202460098266601562e+01
3.175411224365234375e+01
3.162960052490234375e+01
3.162960052490234375e+01
3.135832214355468750e+01
3.162960052490234375e+01
3.123460006713867188e+01
3.135753059387207031e+01
3.123460006713867188e+01
3.123460006713867188e+01
3.111245918273925781e+01
3.123460006713867188e+01
3.123460006713867188e+01
3.083959960937500000e+01
3.083959960937500000e+01
3.071877479553222656e+01
3.056516075134277344e+01
3.083959960937500000e+01
3.083959960937500000e+01
3.056437110900878906e+01
3.083959960937500000e+01
3.083959960937500000e+01
3.083959960937500000e+01
3.111588287353515625e+01
3.095805358886718750e+01
3.123460006713867188e+01
3.123460006713867188e+01
3.162960052490234375e+01
3.162960052490234375e+01
3.135173797607421875e+01
3.162960052490234375e+01
3.162960052490234375e+01
3.162960052490234375e+01
3.162960052490234375e+01
3.174542045593261719e+01
3.202460098266601562e+01
3.202460098266601562e+01
3.241960144042968750e+01
3.281449890136718750e+01
3.281449890136718750e+01
3.320949935913085938e+01
3.428052520751953125e+01
3.478950119018554688e+01
3.614250183105468750e+01
3.794929885864257812e+01
4.020627593994140625e+01
4.206880950927734375e+01
4.494660186767578125e+01
4.838963317871093750e+01
5.126685714721679688e+01
5.431538772583007812e+01
5.708081436157226562e+01
5.956232070922851562e+01
6.193248367309570312e+01
6.283319854736328125e+01
6.401820373535156250e+01
6.509310150146484375e+01
6.480819702148437500e+01
6.412770080566406250e+01
6.362319946289062500e+01
6.254724502563476562e+01
6.125329971313476562e+01
6.006840133666992188e+01
5.888339996337890625e+01
5.780639266967773438e+01
5.651350021362304688e+01
5.583089065551757812e+01
5.493360137939453125e+01
5.385546493530273438e+01
5.295869827270507812e+01
5.188003921508789062e+01
5.108984756469726562e+01
4.990461349487304688e+01
4.900880050659179688e+01
4.782389831542968750e+01
4.663890075683593750e+01
4.555875778198242188e+01
4.426900100708007812e+01
4.279333114624023438e+01
4.150419998168945312e+01
4.002790451049804688e+01
3.913430023193359375e+01
3.805247879028320312e+01
3.715940093994140625e+01
3.636940002441406250e+01
3.557939910888671875e+01
3.489159774780273438e+01
3.439450073242187500e+01
3.439450073242187500e+01
3.399950027465820312e+01
3.360449981689453125e+01
3.360449981689453125e+01
3.331004333496093750e+01
3.320949935913085938e+01
3.320949935913085938e+01
3.291425323486328125e+01
3.281449890136718750e+01
3.281449890136718750e+01
3.241960144042968750e+01
3.241960144042968750e+01
3.202460098266601562e+01
3.202460098266601562e+01
3.192668914794921875e+01
3.162960052490234375e+01
3.162960052490234375e+01
3.133172035217285156e+01
3.123460006713867188e+01
3.123460006713867188e+01
3.123460006713867188e+01
3.113853263854980469e+01
3.113879585266113281e+01
3.123460006713867188e+01
3.123460006713867188e+01
3.123460006713867188e+01
3.083959960937500000e+01
3.083959960937500000e+01
3.123460006713867188e+01
3.123460006713867188e+01
3.123460006713867188e+01
3.093303298950195312e+01
3.123460006713867188e+01
3.114169311523437500e+01
3.114195632934570312e+01
3.123460006713867188e+01
3.093171691894531250e+01
3.123460006713867188e+01
3.153800964355468750e+01
3.162960052490234375e+01
3.162960052490234375e+01
3.162960052490234375e+01
3.202460098266601562e+01
3.202460098266601562e+01
3.202460098266601562e+01
3.202460098266601562e+01
3.241960144042968750e+01
3.202460098266601562e+01
3.241960144042968750e+01
3.241960144042968750e+01
3.281449890136718750e+01
3.290266418457031250e+01
3.399950027465820312e+01
3.549176025390625000e+01
3.667702484130859375e+01
3.856507492065429688e+01
4.093550109863281250e+01
4.339251327514648438e+01
4.607135772705078125e+01
4.892276382446289062e+01
5.239210891723632812e+01
5.555245971679687500e+01
5.800815200805664062e+01
5.998339462280273438e+01
6.195855712890625000e+01
6.362319946289062500e+01
6.401820373535156250e+01
6.441320037841796875e+01
6.480819702148437500e+01
6.401820373535156250e+01
6.283319854736328125e+01
6.173119735717773438e+01
6.085829925537109375e+01
5.967340087890625000e+01
5.817550659179687500e+01
5.730350112915039062e+01
5.620008087158203125e+01
5.532860183715820312e+01
5.453860092163085938e+01
5.343447113037109375e+01
5.264422607421875000e+01
5.177370071411132812e+01
5.098379898071289062e+01
4.987853622436523438e+01
4.900880050659179688e+01
4.790311050415039062e+01
4.671784591674804688e+01
4.553268432617187500e+01
4.426900100708007812e+01
4.308409881591796875e+01
4.158209228515625000e+01
4.039683151245117188e+01
3.913430023193359375e+01
3.834429931640625000e+01
3.715940093994140625e+01
3.605097579956054688e+01
3.526071166992187500e+01
3.478950119018554688e+01
3.399950027465820312e+01
3.360449981689453125e+01
3.360449981689453125e+01
3.360449981689453125e+01
3.320949935913085938e+01
3.281449890136718750e+01
3.281449890136718750e+01
3.209854125976562500e+01
3.241960144042968750e+01
3.241960144042968750e+01
3.209775161743164062e+01
3.202460098266601562e+01
3.202460098266601562e+01
3.202460098266601562e+01
3.162960052490234375e+01
3.162960052490234375e+01
3.162960052490234375e+01
3.130591011047363281e+01
3.123460006713867188e+01
3.116381645202636719e+01
3.083959960937500000e+01
3.083959960937500000e+01
3.051459312438964844e+01
3.083959960937500000e+01
3.077013397216796875e+01
3.077039718627929688e+01
3.083959960937500000e+01
3.083959960937500000e+01
3.051301193237304688e+01
3.077145195007324219e+01
3.083959960937500000e+01
3.083959960937500000e+01
3.083959960937500000e+01
3.083959960937500000e+01
3.083959960937500000e+01
3.083959960937500000e+01
3.051090431213378906e+01
3.051064109802246094e+01
3.044459915161132812e+01
3.083959960937500000e+01
3.116934776306152344e+01
3.123460006713867188e+01
3.090432548522949219e+01
3.123460006713867188e+01
3.117040252685546875e+01
3.123460006713867188e+01
3.123460006713867188e+01
3.156619262695312500e+01
3.156645584106445312e+01
3.162960052490234375e+01
3.202460098266601562e+01
3.202460098266601562e+01
3.202460098266601562e+01
3.202460098266601562e+01
3.241960144042968750e+01
3.314819717407226562e+01
3.354346084594726562e+01
3.427295303344726562e+01
3.557939910888671875e+01
3.715940093994140625e+01
3.907431411743164062e+01
4.144448089599609375e+01
4.420955657958984375e+01
4.697470474243164062e+01
5.007593917846679688e+01
5.323636627197265625e+01
5.606009674072265625e+01
5.922026062011718750e+01
6.085829925537109375e+01
6.277560043334960938e+01
6.475084686279296875e+01
6.486527252197265625e+01
6.520310211181640625e+01
6.480819702148437500e+01
6.441320037841796875e+01
6.328423309326171875e+01
6.209907150268554688e+01
6.125329971313476562e+01
5.972864151000976562e+01
5.848839950561523438e+01
5.730350112915039062e+01
5.656795501708984375e+01
5.538277435302734375e+01
5.453860092163085938e+01
5.340734863281250000e+01
5.222209930419921875e+01
5.143183517456054688e+01
5.024667358398437500e+01
4.945640945434570312e+01
4.827124786376953125e+01
4.708598327636718750e+01
4.624399948120117188e+01
4.432055664062500000e+01
4.313539123535156250e+01
4.195021820068359375e+01
4.071419906616210938e+01
3.957978820800781250e+01
3.873929977416992188e+01
3.760427474975585938e+01
3.676440048217773438e+01
3.562884902954101562e+01
3.518439865112304688e+01
3.478950119018554688e+01
3.439450073242187500e+01
3.399950027465820312e+01
3.365263366699218750e+01
3.360449981689453125e+01
3.320949935913085938e+01
3.320949935913085938e+01
3.316242218017578125e+01
3.281449890136718750e+01
3.281449890136718750e+01
3.241960144042968750e+01
3.241960144042968750e+01
3.202460098266601562e+01
3.202460098266601562e+01
3.197936439514160156e+01
3.162960052490234375e+01
3.127930831909179688e+01
3.162960052490234375e+01
3.127878189086914062e+01
3.123460006713867188e+01
3.123460006713867188e+01
3.123460006713867188e+01
3.123460006713867188e+01
3.088246536254882812e+01
3.123460006713867188e+01
3.083959960937500000e+01
3.083959960937500000e+01
3.083959960937500000e+01
3.079805183410644531e+01
3.083959960937500000e+01
3.083959960937500000e+01
3.083959960937500000e+01
3.048509407043457031e+01
3.079936981201171875e+01
3.083959960937500000e+01
3.083959960937500000e+01
3.083959960937500000e+01
3.083959960937500000e+01
3.119568634033203125e+01
3.087825012207031250e+01
3.123460006713867188e+01
3.083959960937500000e+01
3.123460006713867188e+01
3.083959960937500000e+01
3.123460006713867188e+01
3.159252929687500000e+01
3.162960052490234375e+01
3.162960052490234375e+01
3.162960052490234375e+01
3.198858261108398438e+01
3.202460098266601562e+01
3.202460098266601562e+01
3.202460098266601562e+01
3.238463592529296875e+01
3.241960144042968750e+01
3.241960144042968750e+01
3.281449890136718750e+01
3.320949935913085938e+01
3.357085418701171875e+01
3.439450073242187500e+01
3.594128036499023438e+01
3.712654495239257812e+01
3.910170745849609375e+01
4.147187042236328125e+01
4.347909927368164062e+01
4.618039321899414062e+01
4.937226104736328125e+01
5.250114822387695312e+01
5.566148376464843750e+01
5.806266021728515625e+01
6.043282318115234375e+01
6.280298614501953125e+01
6.398823928833007812e+01
6.441320037841796875e+01
6.480819702148437500e+01
6.520310211181640625e+01
6.404710388183593750e+01
6.325684356689453125e+01
6.246667098999023438e+01
6.128141403198242188e+01
6.009624481201171875e+01
5.888339996337890625e+01
5.733082580566406250e+01
5.654056167602539062e+01
5.535539245605468750e+01
5.453860092163085938e+01
5.337996673583984375e+01
5.258971023559570312e+01
5.143019104003906250e+01
5.058879852294921875e+01
4.942901992797851562e+01
4.861389923095703125e+01
4.745359039306640625e+01
4.587342834472656250e+01
4.468816375732421875e+01
4.350300216674804688e+01
4.231773757934570312e+01
4.113257598876953125e+01
3.994731140136718750e+01
3.913430023193359375e+01
3.794929885864257812e+01
3.676440048217773438e+01
3.597439956665039062e+01
3.520619583129882812e+01
3.481102752685546875e+01
3.439450073242187500e+01
3.399950027465820312e+01
3.399950027465820312e+01
3.360449981689453125e+01
3.360449981689453125e+01
3.360449981689453125e+01
3.360449981689453125e+01
3.320949935913085938e+01
3.283366012573242188e+01
3.281449890136718750e+01
3.241960144042968750e+01
3.241960144042968750e+01
3.204270553588867188e+01
3.202460098266601562e+01
3.164718055725097656e+01
3.202460098266601562e+01
3.202460098266601562e+01
3.162960052490234375e+01
3.162960052490234375e+01
3.125086402893066406e+01
3.123460006713867188e+01
3.123460006713867188e+01
3.123460006713867188e+01
3.123460006713867188e+01
3.123460006713867188e+01
3.085428237915039062e+01
3.083959960937500000e+01
3.122044372558593750e+01
3.122070693969726562e+01
3.123460006713867188e+01
3.085296630859375000e+01
3.083959960937500000e+01
3.123460006713867188e+01
3.123460006713867188e+01
3.083959960937500000e+01
3.123460006713867188e+01
3.123460006713867188e+01
3.122307777404785156e+01
3.122334098815917969e+01
3.123460006713867188e+01
3.161886787414550781e+01
3.123460006713867188e+01
3.162960052490234375e+01
3.162960052490234375e+01
3.202460098266601562e+01
3.202460098266601562e+01
3.202460098266601562e+01
3.203348922729492188e+01
3.241960144042968750e+01
3.203296279907226562e+01
3.202460098266601562e+01
3.280666732788085938e+01
3.281449890136718750e+01
3.360449981689453125e+01
3.438745498657226562e+01
3.557261657714843750e+01
3.636940002441406250e+01
3.754804611206054688e+01
4.030721664428710938e+01
4.268337249755859375e+01
4.504806900024414062e+01
4.781869888305664062e+01
5.137376403808593750e+01
5.453392410278320312e+01
5.690408706665039062e+01
5.927425003051757812e+01
6.164441680908203125e+01
6.283319854736328125e+01
6.362319946289062500e+01
6.401820373535156250e+01
6.441320037841796875e+01
6.362576675415039062e+01
6.283319854736328125e+01
6.204330062866210938e+01
6.086007690429687500e+01
5.967491531372070312e+01
5.848839950561523438e+01
5.730350112915039062e+01
5.611922454833984375e+01
5.532860183715820312e+01
5.414379882812500000e+01
5.335363388061523438e+01
5.216870117187500000e+01
5.137810897827148438e+01
5.019294357299804688e+01
4.900880050659179688e+01
4.821751785278320312e+01
4.703225326538085938e+01
4.584709167480468750e+01
4.466182708740234375e+01
4.347666549682617188e+01
4.229140090942382812e+01
4.110623550415039062e+01
3.992419815063476562e+01
3.912731933593750000e+01
3.794554519653320312e+01
3.676440048217773438e+01
3.597439956665039062e+01
3.557485580444335938e+01
3.439450073242187500e+01
3.399950027465820312e+01
3.360449981689453125e+01
3.360449981689453125e+01
3.320949935913085938e+01
3.320949935913085938e+01
3.320949935913085938e+01
3.320285034179687500e+01
3.281449890136718750e+01
3.281449890136718750e+01
3.281449890136718750e+01
3.242730331420898438e+01
3.241960144042968750e+01
3.202460098266601562e+01
3.201610565185546875e+01
3.162960052490234375e+01
3.162960052490234375e+01
3.162960052490234375e+01
3.162960052490234375e+01
3.162960052490234375e+01
3.162960052490234375e+01
3.123460006713867188e+01
3.123460006713867188e+01
3.123460006713867188e+01
3.123460006713867188e+01
3.123460006713867188e+01
3.123460006713867188e+01
3.122268295288085938e+01
3.122241973876953125e+01
3.123460006713867188e+01
3.123460006713867188e+01
3.123460006713867188e+01
3.083959960937500000e+01
3.122110176086425781e+01
3.123460006713867188e+01
3.123460006713867188e+01
3.122031211853027344e+01
3.123460006713867188e+01
3.083959960937500000e+01
3.123460006713867188e+01
3.123460006713867188e+01
3.125020599365234375e+01
3.123460006713867188e+01
3.162960052490234375e+01
3.164599609375000000e+01
3.202460098266601562e+01
3.200767898559570312e+01
3.164678573608398438e+01
3.202460098266601562e+01
3.202460098266601562e+01
3.202460098266601562e+01
3.241960144042968750e+01
3.241960144042968750e+01
3.243836212158203125e+01
3.281449890136718750e+01
3.362379074096679688e+01
3.439450073242187500e+01
3.480931472778320312e+01
3.638948440551757812e+01
3.836464691162109375e+01
4.036042022705078125e+01
4.270997238159179688e+01
4.549627304077148438e+01
4.865669250488281250e+01
5.179536437988281250e+01
5.456052780151367188e+01
5.693069076538085938e+01
5.971829986572265625e+01
6.167101669311523438e+01
6.285617828369140625e+01
6.404144287109375000e+01
6.480819702148437500e+01
6.438942718505859375e+01
6.399416732788085938e+01
6.322819900512695312e+01
6.204330062866210938e+01
6.085829925537109375e+01
5.967340087890625000e+01
5.885805130004882812e+01
5.730350112915039062e+01
5.611849975585937500e+01
5.532860183715820312e+01
5.414360046386718750e+01
5.332703399658203125e+01
5.253676986694335938e+01
5.135151290893554688e+01
5.058879852294921875e+01
4.977108001708984375e+01
4.858591461181640625e+01
4.740065383911132812e+01
4.621548843383789062e+01
4.503022766113281250e+01
4.347909927368164062e+01
4.226480484008789062e+01
4.107963562011718750e+01
3.992419815063476562e+01
3.870920944213867188e+01
3.755429840087890625e+01
3.676440048217773438e+01
3.633852005004882812e+01
3.518439865112304688e+01
3.475809097290039062e+01
3.439450073242187500e+01
3.399950027465820312e+01
3.360449981689453125e+01
3.360449981689453125e+01
3.357177352905273438e+01
3.320949935913085938e+01
3.320949935913085938e+01
3.320949935913085938e+01
3.320949935913085938e+01
3.281449890136718750e+01
3.241960144042968750e+01
3.238503265380859375e+01
3.202460098266601562e+01
3.202460098266601562e+01
3.198924255371093750e+01
3.198897743225097656e+01
3.162960052490234375e+01
3.162960052490234375e+01
3.127101135253906250e+01
3.123460006713867188e+01
3.123460006713867188e+01
3.127180290222167969e+01
3.123460006713867188e+01
3.123460006713867188e+01
3.123460006713867188e+01
3.123460006713867188e+01
3.119608116149902344e+01
3.123460006713867188e+01
3.123460006713867188e+01
3.123460006713867188e+01
3.083959960937500000e+01
3.123460006713867188e+01
3.087969970703125000e+01
3.119423675537109375e+01
3.123460006713867188e+01
3.088048934936523438e+01
3.088075256347656250e+01
3.123460006713867188e+01
3.123460006713867188e+01
3.162960052490234375e+01
3.127680587768554688e+01
3.162960052490234375e+01
3.167233276367187500e+01
3.202460098266601562e+01
3.202460098266601562e+01
3.202460098266601562e+01
3.206838607788085938e+01
3.202460098266601562e+01
3.206891250610351562e+01
3.241960144042968750e+01
3.241960144042968750e+01
3.281449890136718750e+01
3.285986709594726562e+01
3.360449981689453125e+01
3.399950027465820312e+01
3.444065856933593750e+01
3.602082061767578125e+01
3.799598312377929688e+01
3.957623672485351562e+01
4.194639968872070312e+01
4.436394882202148438e+01
4.752437591552734375e+01
5.063679885864257812e+01
5.305521392822265625e+01
5.616702651977539062e+01
5.898097991943359375e+01
6.130235290527343750e+01
6.288251876831054688e+01
6.406777954101562500e+01
6.520310211181640625e+01
6.480819702148437500e+01
6.441320037841796875e+01
6.401820373535156250e+01
6.322819900512695312e+01
6.199213790893554688e+01
6.080687713623046875e+01
5.927840042114257812e+01
5.809339904785156250e+01
5.725128555297851562e+01
5.606602096557617188e+01
5.527585983276367188e+01
5.414360046386718750e+01
5.295869827270507812e+01
5.251016998291015625e+01
5.132492065429687500e+01
5.053474044799804688e+01
4.934947967529296875e+01
4.821889877319335938e+01
4.737405014038085938e+01
4.584899902343750000e+01
4.500362396240234375e+01
4.342346191406250000e+01
4.223821258544921875e+01
4.105303573608398438e+01
3.992419815063476562e+01
3.873929977416992188e+01
3.789234542846679688e+01
3.710218048095703125e+01
3.597439956665039062e+01
3.557939910888671875e+01
3.512640762329101562e+01
3.439450073242187500e+01
3.399950027465820312e+01
3.399950027465820312e+01
3.354543685913085938e+01
3.360449981689453125e+01
3.320949935913085938e+01
3.320949935913085938e+01
3.320949935913085938e+01
3.314912033081054688e+01
3.281449890136718750e+01
3.241960144042968750e+01
3.241960144042968750e+01
3.235816574096679688e+01
3.202460098266601562e+01
3.202460098266601562e+01
3.162960052490234375e+01
3.162960052490234375e+01
3.129734992980957031e+01
3.123460006713867188e+01
3.123460006713867188e+01
3.083959960937500000e+01
3.117079734802246094e+01
3.083959960937500000e+01
3.117027091979980469e+01
3.123460006713867188e+01
3.123460006713867188e+01
3.123460006713867188e+01
3.123460006713867188e+01
3.123460006713867188e+01
3.090550994873046875e+01
3.090577316284179688e+01
3.083959960937500000e+01
3.083959960937500000e+01
3.083959960937500000e+01
3.083959960937500000e+01
3.083959960937500000e+01
3.083959960937500000e+01
3.083959960937500000e+01
3.116631889343261719e+01
3.090814399719238281e+01
3.083959960937500000e+01
3.116552925109863281e+01
3.123460006713867188e+01
3.123460006713867188e+01
3.123460006713867188e+01
3.162960052490234375e+01
3.162960052490234375e+01
3.162960052490234375e+01
3.170051383972167969e+01
3.170077705383300781e+01
3.202460098266601562e+01
3.202460098266601562e+01
3.249155044555664062e+01
3.313726806640625000e+01
3.360449981689453125e+01
3.478950119018554688e+01
3.636940002441406250e+01
3.762758636474609375e+01
3.960282897949218750e+01
4.236791229248046875e+01
4.481214904785156250e+01
4.789823913574218750e+01
5.073798370361328125e+01
5.382346343994140625e+01
5.698362731933593750e+01
5.895878982543945312e+01
6.132895660400390625e+01
6.298503875732421875e+01
6.441320037841796875e+01
6.473175811767578125e+01
6.480819702148437500e+01
6.480819702148437500e+01
6.394096374511718750e+01
6.275572204589843750e+01
6.196553802490234375e+01
6.078027343750000000e+01
5.927840042114257812e+01
5.840984725952148438e+01
5.698731613159179688e+01
5.611849975585937500e+01
5.493360137939453125e+01
5.406399536132812500e+01
5.327383041381835938e+01
5.248356628417968750e+01
5.137870025634765625e+01
5.058879852294921875e+01
4.932287597656250000e+01
4.821889877319335938e+01
4.734745025634765625e+01
4.616228866577148438e+01
4.466400146484375000e+01
4.339686203002929688e+01
4.229410171508789062e+01
4.110919952392578125e+01
4.023617172241210938e+01
3.873929977416992188e+01
3.786574172973632812e+01
3.676440048217773438e+01
3.597439956665039062e+01
3.549505233764648438e+01
3.478950119018554688e+01
3.399950027465820312e+01
3.368963623046875000e+01
3.360449981689453125e+01
3.320949935913085938e+01
3.320949935913085938e+01
3.320949935913085938e+01
3.290095520019531250e+01
3.281449890136718750e+01
3.241960144042968750e+01
3.241960144042968750e+01
3.241960144042968750e+01
3.202460098266601562e+01
3.202460098266601562e+01
3.202460098266601562e+01
3.162960052490234375e+01
3.162960052490234375e+01
3.132368659973144531e+01
3.123460006713867188e+01
3.123460006713867188e+01
3.114472198486328125e+01
3.123460006713867188e+01
3.083959960937500000e+01
3.074893188476562500e+01
3.083959960937500000e+01
3.074840545654296875e+01
3.053605842590332031e+01
3.083959960937500000e+01
3.044459915161132812e+01
3.044459915161132812e+01
3.053711128234863281e+01
3.044459915161132812e+01
3.074656105041503906e+01
3.074629783630371094e+01
3.083959960937500000e+01
3.083959960937500000e+01
3.083959960937500000e+01
3.083959960937500000e+01
3.044459915161132812e+01
3.083959960937500000e+01
3.083959960937500000e+01
3.083959960937500000e+01
3.083959960937500000e+01
3.113866424560546875e+01
3.083959960937500000e+01
3.123460006713867188e+01
3.123460006713867188e+01
3.123460006713867188e+01
3.123460006713867188e+01
3.133211517333984375e+01
3.162960052490234375e+01
3.172764205932617188e+01
3.162960052490234375e+01
3.202460098266601562e+01
3.202460098266601562e+01
3.241960144042968750e+01
3.271516799926757812e+01
3.281449890136718750e+01
3.320949935913085938e+01
3.370465087890625000e+01
3.478950119018554688e+01
3.528507614135742188e+01
3.726031494140625000e+01
3.913430023193359375e+01
4.121066665649414062e+01
4.358082962036132812e+01
4.644795989990234375e+01
4.921331405639648438e+01
5.266621780395507812e+01
5.513914108276367188e+01
5.819644546508789062e+01
6.066991806030273438e+01
6.214687347412109375e+01
6.362319946289062500e+01
6.480819702148437500e+01
6.520310211181640625e+01
6.480819702148437500e+01
6.441320037841796875e+01
6.351804733276367188e+01
6.243830108642578125e+01
6.114762115478515625e+01
5.967340087890625000e+01
5.877719497680664062e+01
5.730350112915039062e+01
5.640676498413085938e+01
5.532860183715820312e+01
5.453860092163085938e+01
5.335369873046875000e+01
5.245591354370117188e+01
5.137870025634765625e+01
5.019380187988281250e+01
4.929522323608398438e+01
4.811005783081054688e+01
4.692479705810546875e+01
4.573963165283203125e+01
4.455437088012695312e+01
4.308409881591796875e+01
4.150419998168945312e+01
4.031919860839843750e+01
3.941861724853515625e+01
3.823335266113281250e+01
3.715940093994140625e+01
3.636940002441406250e+01
3.586266326904296875e+01
3.507242584228515625e+01
3.478950119018554688e+01
3.439450073242187500e+01
3.399950027465820312e+01
3.360449981689453125e+01
3.360449981689453125e+01
3.320949935913085938e+01
3.320949935913085938e+01
3.309539031982421875e+01
3.309512710571289062e+01
3.281449890136718750e+01
3.241960144042968750e+01
3.241960144042968750e+01
3.241960144042968750e+01
3.202460098266601562e+01
3.202460098266601562e+01
3.202460098266601562e+01
3.162960052490234375e+01
3.162960052490234375e+01
3.162960052490234375e+01
3.135186958312988281e+01
3.123460006713867188e+01
3.123460006713867188e+01
3.123460006713867188e+01
3.095792198181152344e+01
3.111601448059082031e+01
3.111575126647949219e+01
3.083959960937500000e+01
3.111522483825683594e+01
3.083959960937500000e+01
3.111469841003417969e+01
3.123460006713867188e+01
3.123460006713867188e+01
3.123460006713867188e+01
3.123460006713867188e+01
3.111338043212890625e+01
3.083959960937500000e+01
3.123460006713867188e+01
3.096160888671875000e+01
3.096187210083007812e+01
3.135713577270507812e+01
3.135739898681640625e+01
3.162960052490234375e+01
3.162960052490234375e+01
3.162960052490234375e+01
3.162960052490234375e+01
3.175371742248535156e+01
3.202460098266601562e+01
3.162960052490234375e+01
3.202460098266601562e+01
3.214976882934570312e+01
3.215003204345703125e+01
3.229390335083007812e+01
3.241960144042968750e+01
3.254579162597656250e+01
3.320949935913085938e+01
3.373125076293945312e+01
3.439450073242187500e+01
3.570667648315429688e+01
3.768183898925781250e+01
3.926210403442382812e+01
4.136533355712890625e+01
4.413072967529296875e+01
4.662974929809570312e+01
4.953265762329101562e+01
5.269282150268554688e+01
5.558733367919921875e+01
5.861804580688476562e+01
6.059321212768554688e+01
6.217347335815429688e+01
6.375363922119140625e+01
6.441320037841796875e+01
6.441320037841796875e+01
6.401820373535156250e+01
6.362319946289062500e+01
6.230654525756835938e+01
6.125329971313476562e+01
6.033105087280273438e+01
5.888339996337890625e+01
5.756569290161132812e+01
5.638042831420898438e+01
5.572349929809570312e+01
5.493360137939453125e+01
5.374860000610351562e+01
5.256370162963867188e+01
5.163931274414062500e+01
5.058879852294921875e+01
4.940380096435546875e+01
4.861389923095703125e+01
4.742890167236328125e+01
4.663890075683593750e+01
4.518206405639648438e+01
4.373786926269531250e+01
4.255260467529296875e+01
4.110919952392578125e+01
3.992419815063476562e+01
3.899701309204101562e+01
3.794929885864257812e+01
3.702158737182617188e+01
3.636940002441406250e+01
3.544106292724609375e+01
3.504583358764648438e+01
3.439450073242187500e+01
3.399950027465820312e+01
3.360449981689453125e+01
3.360449981689453125e+01
3.360449981689453125e+01
3.320949935913085938e+01
3.320949935913085938e+01
3.320949935913085938e+01
3.320949935913085938e+01
3.281449890136718750e+01
3.281449890136718750e+01
3.241960144042968750e+01
3.241960144042968750e+01
3.202460098266601562e+01
3.202460098266601562e+01
3.162960052490234375e+01
3.162960052490234375e+01
3.123460006713867188e+01
3.137820625305175781e+01
3.162960052490234375e+01
3.148546600341796875e+01
3.162960052490234375e+01
3.123460006713867188e+01
3.123460006713867188e+01
3.123460006713867188e+01
3.108914947509765625e+01
3.083959960937500000e+01
3.108862304687500000e+01
3.123460006713867188e+01
3.108809661865234375e+01
3.083959960937500000e+01
3.098662948608398438e+01
3.083959960937500000e+01
3.083959960937500000e+01
3.098742103576660156e+01
3.108651542663574219e+01
3.123460006713867188e+01
3.083959960937500000e+01
3.123460006713867188e+01
3.123460006713867188e+01
3.123460006713867188e+01
3.098926353454589844e+01
3.138452720642089844e+01
3.147940826416015625e+01
3.162960052490234375e+01
3.162960052490234375e+01
3.162960052490234375e+01
3.162960052490234375e+01
3.187309265136718750e+01
3.202460098266601562e+01
3.202460098266601562e+01
3.202460098266601562e+01
3.241960144042968750e+01
3.296732330322265625e+01
3.375758743286132812e+01
3.454785156250000000e+01
3.612801361083984375e+01
3.770817947387695312e+01
3.968340301513671875e+01
4.126360321044921875e+01
4.363376998901367188e+01
4.734376144409179688e+01
5.034899520874023438e+01
5.271915817260742188e+01
5.603494262695312500e+01
5.927840042114257812e+01
6.061954879760742188e+01
6.219981002807617188e+01
6.417497253417968750e+01
6.441320037841796875e+01
6.441320037841796875e+01
6.401820373535156250e+01
6.362319946289062500e+01
6.267514801025390625e+01
6.148994445800781250e+01
6.030472183227539062e+01
5.911951828002929688e+01
5.753935241699218750e+01
5.635409164428710938e+01
5.556386947631835938e+01
5.453860092163085938e+01
5.358843994140625000e+01
5.256370162963867188e+01
5.161297225952148438e+01
5.082281112670898438e+01
4.963754653930664062e+01
4.861389923095703125e+01
4.742890167236328125e+01
4.608195877075195312e+01
4.489669418334960938e+01
4.347909927368164062e+01
4.229410171508789062e+01
4.117800903320312500e+01
3.992419815063476562e+01
3.897067642211914062e+01
3.755429840087890625e+01
3.660025024414062500e+01
3.597439956665039062e+01
3.518439865112304688e+01
3.455944061279296875e+01
3.439450073242187500e+01
3.399950027465820312e+01
3.360449981689453125e+01
3.360449981689453125e+01
3.360449981689453125e+01
3.360449981689453125e+01
3.320949935913085938e+01
3.304245376586914062e+01
3.320949935913085938e+01
3.281449890136718750e+01
3.241960144042968750e+01
3.241960144042968750e+01
3.202460098266601562e+01
3.202460098266601562e+01
3.185570907592773438e+01
3.185544586181640625e+01
3.162960052490234375e+01
3.162960052490234375e+01
3.162960052490234375e+01
3.162960052490234375e+01
3.145912933349609375e+01
3.123460006713867188e+01
3.123460006713867188e+01
3.123460006713867188e+01
3.083959960937500000e+01
3.106281280517578125e+01
3.123460006713867188e+01
3.123460006713867188e+01
3.123460006713867188e+01
3.083959960937500000e+01
3.083959960937500000e+01
3.083959960937500000e+01
3.083959960937500000e+01
3.123460006713867188e+01
3.101375770568847656e+01
3.123460006713867188e+01
3.083959960937500000e+01
3.123460006713867188e+01
3.123460006713867188e+01
3.145412445068359375e+01
3.162960052490234375e+01
3.162960052490234375e+01
3.180586433410644531e+01
3.162960052490234375e+01
3.202460098266601562e+01
3.202460098266601562e+01
3.224228286743164062e+01
3.224201965332031250e+01
3.241960144042968750e+01
3.202460098266601562e+01
3.241960144042968750e+01
3.241960144042968750e+01
3.281449890136718750e+01
3.320949935913085938e+01
3.399950027465820312e+01
3.478950119018554688e+01
3.615435409545898438e+01
3.773451614379882812e+01
3.931477737426757812e+01
4.186563873291015625e+01
4.484500503540039062e+01
4.779143905639648438e+01
5.077033233642578125e+01
5.393039703369140625e+01
5.687762069702148438e+01
5.985572433471679688e+01
6.143588638305664062e+01
6.283319854736328125e+01
6.441320037841796875e+01
6.480819702148437500e+01
6.459683990478515625e+01
6.441320037841796875e+01
6.362319946289062500e+01
6.243830108642578125e+01
6.125329971313476562e+01
6.027838897705078125e+01
5.888339996337890625e+01
5.790796279907226562e+01
5.672275161743164062e+01
5.572349929809570312e+01
5.474732589721679688e+01
5.395706176757812500e+01
5.295869827270507812e+01
5.198163604736328125e+01
5.098379898071289062e+01
5.019380187988281250e+01
4.921594619750976562e+01
4.803078460693359375e+01
4.684552001953125000e+01
4.566035461425781250e+01
4.426900100708007812e+01
4.308409881591796875e+01
4.170976638793945312e+01
4.052450180053710938e+01
3.933934020996093750e+01
3.834429931640625000e+01
3.736386108398437500e+01
3.676440048217773438e+01
3.578338623046875000e+01
3.538812255859375000e+01
3.478950119018554688e+01
3.439450073242187500e+01
3.399950027465820312e+01
3.399950027465820312e+01
3.380690383911132812e+01
3.360449981689453125e+01
3.360449981689453125e+01
3.360449981689453125e+01
3.341085052490234375e+01
3.320949935913085938e+01
3.281449890136718750e+01
3.281449890136718750e+01
3.241960144042968750e+01
3.241960144042968750e+01
3.202460098266601562e+01
3.202460098266601562e+01
3.162960052490234375e+01
3.162960052490234375e+01
3.123460006713867188e+01
3.123460006713867188e+01
3.143279075622558594e+01
3.103667259216308594e+01
3.083959960937500000e+01
3.103700065612792969e+01
3.083959960937500000e+01
3.103772544860839844e+01
3.103621101379394531e+01
3.083959960937500000e+01
3.083959960937500000e+01
3.123460006713867188e+01
3.103515815734863281e+01
3.103930664062500000e+01
3.103956985473632812e+01
3.123460006713867188e+01
3.123460006713867188e+01
3.123460006713867188e+01
3.123460006713867188e+01
3.123460006713867188e+01
3.123460006713867188e+01
3.162960052490234375e+01
3.162960052490234375e+01
3.162960052490234375e+01
3.202460098266601562e+01
3.202460098266601562e+01
3.202460098266601562e+01
3.202460098266601562e+01
3.202460098266601562e+01
3.221567916870117188e+01
3.221541595458984375e+01
3.202460098266601562e+01
3.241960144042968750e+01
3.241960144042968750e+01
3.281449890136718750e+01
3.320949935913085938e+01
3.381026458740234375e+01
3.439450073242187500e+01
3.618069076538085938e+01
3.776085281372070312e+01
3.934111785888671875e+01
4.191830825805664062e+01
4.487134552001953125e+01
4.744911575317382812e+01
5.079666900634765625e+01
5.356178283691406250e+01
5.653529357910156250e+01
5.948706054687500000e+01
6.106722259521484375e+01
6.283319854736328125e+01
6.422765350341796875e+01
6.480819702148437500e+01
6.441320037841796875e+01
6.422843933105468750e+01
6.362319946289062500e+01
6.262248611450195312e+01
6.125329971313476562e+01
6.025205993652343750e+01
5.906684112548828125e+01
5.827657699584960938e+01
5.709141540527343750e+01
5.630115127563476562e+01
5.532860183715820312e+01
5.432572555541992188e+01
5.353551483154296875e+01
5.256370162963867188e+01
5.156003570556640625e+01
5.076987075805664062e+01
4.958460998535156250e+01
4.839944458007812500e+01
4.742890167236328125e+01
4.602901840209960938e+01
4.484375381469726562e+01
4.347909927368164062e+01
4.229410171508789062e+01
4.128816604614257812e+01
4.010290145874023438e+01
3.891773986816406250e+01
3.794929885864257812e+01
3.694231033325195312e+01
3.615204620361328125e+01
3.518439865112304688e+01
3.478950119018554688e+01
3.399950027465820312e+01
3.360449981689453125e+01
3.320949935913085938e+01
3.320949935913085938e+01
3.281449890136718750e+01
3.281449890136718750e+01
3.259483337402343750e+01
3.281449890136718750e+01
3.241960144042968750e+01
3.241960144042968750e+01
3.241960144042968750e+01
3.224563980102539062e+01
3.162960052490234375e+01
3.145616531372070312e+01
3.140777015686035156e+01
3.123460006713867188e+01
3.101224327087402344e+01
3.123460006713867188e+01
3.083959960937500000e+01
3.083959960937500000e+01
3.066800880432128906e+01
3.083959960937500000e+01
3.061566352844238281e+01
3.083959960937500000e+01
3.083959960937500000e+01
3.083959960937500000e+01
3.066958999633789062e+01
3.083959960937500000e+01
3.083959960937500000e+01
3.083959960937500000e+01
3.083959960937500000e+01
3.067090606689453125e+01
3.061302947998046875e+01
3.083959960937500000e+01
3.083959960937500000e+01
3.083959960937500000e+01
3.061197662353515625e+01
3.083959960937500000e+01
3.083959960937500000e+01
3.106801414489746094e+01
3.083959960937500000e+01
3.106854057312011719e+01
3.123460006713867188e+01
3.146406745910644531e+01
3.146433067321777344e+01
3.162960052490234375e+01
3.162960052490234375e+01
3.162960052490234375e+01
3.202460098266601562e+01
3.202460098266601562e+01
3.179328918457031250e+01
3.202460098266601562e+01
3.186143875122070312e+01
3.202460098266601562e+01
3.225696563720703125e+01
3.241960144042968750e+01
3.281449890136718750e+01
3.320949935913085938e+01
3.423291778564453125e+01
3.518439865112304688e+01
3.636940002441406250e+01
3.794929885864257812e+01
4.031919860839843750e+01
4.292383575439453125e+01
4.529399871826171875e+01
4.845416259765625000e+01
5.161422348022460938e+01
5.477438735961914062e+01
5.753955078125000000e+01
5.990971374511718750e+01
6.227987670898437500e+01
6.401820373535156250e+01
6.441320037841796875e+01
6.480819702148437500e+01
6.520310211181640625e+01
6.457030487060546875e+01
6.362319946289062500e+01
6.283319854736328125e+01
6.164830017089843750e+01
6.046329879760742188e+01
5.903918838500976562e+01
5.785398483276367188e+01
5.706376266479492188e+01
5.572349929809570312e+01
5.469333267211914062e+01
5.390307235717773438e+01
5.295869827270507812e+01
5.192764282226562500e+01
5.098379898071289062e+01
4.995221710205078125e+01
4.876701354980468750e+01
4.758179092407226562e+01
4.639658737182617188e+01
4.521136474609375000e+01
4.387409973144531250e+01
4.284093856811523438e+01
4.150419998168945312e+01
4.031919860839843750e+01
3.928534698486328125e+01
3.834429931640625000e+01
3.715940093994140625e+01
3.612465667724609375e+01
3.557939910888671875e+01
3.518439865112304688e+01
3.478950119018554688e+01
3.439450073242187500e+01
3.414844131469726562e+01
3.360449981689453125e+01
3.360449981689453125e+01
3.335765075683593750e+01
3.296238708496093750e+01
3.281449890136718750e+01
3.281449890136718750e+01
3.256665802001953125e+01
3.241960144042968750e+01
3.241960144042968750e+01
3.202460098266601562e+01
3.187855720520019531e+01
3.187882041931152344e+01
3.162960052490234375e+01
3.162960052490234375e+01
3.162960052490234375e+01
3.162960052490234375e+01
3.162960052490234375e+01
3.123460006713867188e+01
3.123460006713867188e+01
3.083959960937500000e+01
3.123460006713867188e+01
3.098274612426757812e+01
3.123460006713867188e+01
3.109198188781738281e+01
3.098195457458496094e+01
3.083959960937500000e+01
3.083959960937500000e+01
3.069803428649902344e+01
3.058590126037597656e+01
3.044459915161132812e+01
3.083959960937500000e+01
3.083959960937500000e+01
3.083959960937500000e+01
3.083959960937500000e+01
3.123460006713867188e+01
3.123460006713867188e+01
3.083959960937500000e+01
3.109566879272460938e+01
3.097826766967773438e+01
3.123460006713867188e+01
3.137274169921875000e+01
3.149172210693359375e+01
3.162960052490234375e+01
3.162960052490234375e+01
3.162960052490234375e+01
3.202460098266601562e+01
3.202460098266601562e+01
3.202460098266601562e+01
3.241960144042968750e+01
3.255533599853515625e+01
3.241960144042968750e+01
3.320949935913085938e+01
3.360449981689453125e+01
3.439450073242187500e+01
3.544494628906250000e+01
3.702520751953125000e+01
3.860537338256835938e+01
4.031919860839843750e+01
4.321229934692382812e+01
4.611086273193359375e+01
4.887596130371093750e+01
5.164109039306640625e+01
5.440625381469726562e+01
5.743433380126953125e+01
5.993658065795898438e+01
6.125329971313476562e+01
6.309690475463867188e+01
6.441320037841796875e+01
6.441320037841796875e+01
6.414870452880859375e+01
6.414843750000000000e+01
6.335817718505859375e+01
6.217301177978515625e+01
6.098775100708007812e+01
5.967340087890625000e+01
5.822232437133789062e+01
5.703715896606445312e+01
5.585189819335937500e+01
5.506173324584960938e+01
5.414360046386718750e+01
5.308630752563476562e+01
5.190104293823242188e+01
5.098379898071289062e+01
4.992561721801757812e+01
4.874042129516601562e+01
4.782389831542968750e+01
4.663890075683593750e+01
4.584899902343750000e+01
4.439450073242187500e+01
4.281433486938476562e+01
4.162917327880859375e+01
4.031919860839843750e+01
3.925874710083007812e+01
3.834429931640625000e+01
3.728328704833984375e+01
3.649305725097656250e+01
3.597439956665039062e+01
3.518439865112304688e+01
3.478950119018554688e+01
3.439450073242187500e+01
3.399950027465820312e+01
3.360449981689453125e+01
3.360449981689453125e+01
3.360449981689453125e+01
3.320949935913085938e+01
3.320949935913085938e+01
3.320949935913085938e+01
3.293499374389648438e+01
3.281449890136718750e+01
3.241960144042968750e+01
3.214430618286132812e+01
3.202460098266601562e+01
3.202460098266601562e+01
3.174851417541503906e+01
3.174825096130371094e+01
3.162960052490234375e+01
3.162960052490234375e+01
3.135246086120605469e+01
3.123460006713867188e+01
3.123460006713867188e+01
3.123460006713867188e+01
3.095640754699707031e+01
3.095614433288574219e+01
3.123460006713867188e+01
3.123460006713867188e+01
3.083959960937500000e+01
3.111910820007324219e+01
3.095482826232910156e+01
3.083959960937500000e+01
3.123460006713867188e+01
3.123460006713867188e+01
3.123460006713867188e+01
3.083959960937500000e+01
3.083959960937500000e+01
3.095298385620117188e+01
3.123460006713867188e+01
3.123460006713867188e+01
3.123460006713867188e+01
3.162960052490234375e+01
3.162960052490234375e+01
3.162960052490234375e+01
3.202460098266601562e+01
3.191332244873046875e+01
3.162960052490234375e+01
3.162960052490234375e+01
3.202460098266601562e+01
3.202460098266601562e+01
3.202460098266601562e+01
3.213429641723632812e+01
3.241960144042968750e+01
3.241960144042968750e+01
3.310059356689453125e+01
3.360449981689453125e+01
3.468112182617187500e+01
3.557939910888671875e+01
3.744647598266601562e+01
3.913430023193359375e+01
4.100187301635742188e+01
4.405490112304687500e+01
4.692710113525390625e+01
5.008726501464843750e+01
5.314115524291992188e+01
5.601248931884765625e+01
5.867190933227539062e+01
6.085829925537109375e+01
6.233308029174804688e+01
6.351824569702148438e+01
6.470350646972656250e+01
6.441320037841796875e+01
6.401820373535156250e+01
6.362319946289062500e+01
6.254191207885742188e+01
6.164830017089843750e+01
6.046329879760742188e+01
5.888339996337890625e+01
5.780105972290039062e+01
5.701082229614257812e+01
5.543063354492187500e+01
5.464039611816406250e+01
5.374860000610351562e+01
5.295869827270507812e+01
5.187470626831054688e+01
5.098379898071289062e+01
4.979880142211914062e+01
4.871408843994140625e+01
4.782389831542968750e+01
4.634366226196289062e+01
4.515842437744140625e+01
4.367739868164062500e+01
4.239299774169921875e+01
4.110919952392578125e+01
3.992419815063476562e+01
3.873929977416992188e+01
3.765214538574218750e+01
3.676440048217773438e+01
3.607171630859375000e+01
3.557939910888671875e+01
3.478950119018554688e+01
3.449102783203125000e+01
3.399950027465820312e+01
3.370050048828125000e+01
3.360449981689453125e+01
3.360449981689453125e+01
3.360449981689453125e+01
3.330444717407226562e+01
3.290918350219726562e+01
3.272010421752929688e+01
3.241960144042968750e+01
3.241960144042968750e+01
3.241960144042968750e+01
3.241960144042968750e+01
3.202460098266601562e+01
3.202460098266601562e+01
3.193202209472656250e+01
3.162960052490234375e+01
3.162960052490234375e+01
3.153781318664550781e+01
3.123460006713867188e+01
3.123460006713867188e+01
3.093059730529785156e+01
3.083959960937500000e+01
3.093007087707519531e+01
3.114439392089843750e+01
3.083959960937500000e+01
3.123460006713867188e+01
3.114518356323242188e+01
3.092875289916992188e+01
3.123460006713867188e+01
3.123460006713867188e+01
3.123460006713867188e+01
3.123460006713867188e+01
3.123460006713867188e+01
3.123460006713867188e+01
3.114729118347167969e+01
3.123460006713867188e+01
3.123460006713867188e+01
3.123460006713867188e+01
3.123460006713867188e+01
3.162960052490234375e+01
3.162960052490234375e+01
3.162960052490234375e+01
3.193939781188964844e+01
3.171453857421875000e+01
3.202460098266601562e+01
3.202460098266601562e+01
3.202460098266601562e+01
3.241960144042968750e+01
3.210822296142578125e+01
3.241960144042968750e+01
3.273142623901367188e+01
3.281449890136718750e+01
3.352193069458007812e+01
3.431219482421875000e+01
3.478950119018554688e+01
3.597439956665039062e+01
3.794929885864257812e+01
3.984296798706054688e+01
4.181821060180664062e+01
4.458327484130859375e+01
4.774343872070312500e+01
5.090360260009765625e+01
5.366868591308593750e+01
5.643383026123046875e+01
5.951458358764648438e+01
6.125329971313476562e+01
6.275433731079101562e+01
6.393958282470703125e+01
6.480819702148437500e+01
6.441320037841796875e+01
6.401820373535156250e+01
6.362319946289062500e+01
6.251558303833007812e+01
6.133033752441406250e+01
6.006840133666992188e+01
5.895991134643554688e+01
5.777472686767578125e+01
5.658948516845703125e+01
5.572349929809570312e+01
5.461405944824218750e+01
5.374860000610351562e+01
5.295869827270507812e+01
5.177370071411132812e+01
5.098379898071289062e+01
5.019380187988281250e+01
4.900880050659179688e+01
4.782389831542968750e+01
4.663890075683593750e+01
4.552708816528320312e+01
4.426900100708007812e+01
4.276166152954101562e+01
4.182690429687500000e+01
4.031919860839843750e+01
3.920606994628906250e+01
3.802080535888671875e+01
3.723062515258789062e+01
3.636940002441406250e+01
3.557939910888671875e+01
3.478950119018554688e+01
3.439450073242187500e+01
3.439450073242187500e+01
3.399950027465820312e+01
3.360449981689453125e+01
3.320949935913085938e+01
3.320949935913085938e+01
3.281449890136718750e+01
3.281449890136718750e+01
3.281449890136718750e+01
3.241960144042968750e+01
3.209215545654296875e+01
3.202460098266601562e+01
3.169662857055664062e+01
3.162960052490234375e+01
3.162960052490234375e+01
3.162960052490234375e+01
3.123460006713867188e+01
3.123460006713867188e+01
3.116915130615234375e+01
3.083959960937500000e+01
3.083959960937500000e+01
3.083959960937500000e+01
3.083959960937500000e+01
3.050873184204101562e+01
3.044459915161132812e+01
3.083959960937500000e+01
3.083959960937500000e+01
3.050767898559570312e+01
3.083959960937500000e+01
3.077704811096191406e+01
3.050688934326171875e+01
3.083959960937500000e+01
3.083959960937500000e+01
3.050609779357910156e+01
3.044459915161132812e+01
3.083959960937500000e+01
3.083959960937500000e+01
3.050504493713378906e+01
3.083959960937500000e+01
3.117468261718750000e+01
3.123460006713867188e+01
3.123460006713867188e+01
3.129372787475585938e+01
3.157073593139648438e+01
3.162960052490234375e+01
3.162960052490234375e+01
3.196652603149414062e+01
3.168741035461425781e+01
3.202460098266601562e+01
3.202460098266601562e+01
3.202460098266601562e+01
3.241960144042968750e+01
3.275801849365234375e+01
3.320949935913085938e+01
3.399950027465820312e+01
3.512871170043945312e+01
3.670895767211914062e+01
3.868412399291992188e+01
4.065928649902343750e+01
4.302944946289062500e+01
4.613522338867187500e+01
4.929556655883789062e+01
5.245597839355468750e+01
5.522140502929687500e+01
5.798674392700195312e+01
6.041024398803710938e+01
6.243830108642578125e+01
6.357065582275390625e+01
6.441320037841796875e+01
6.520310211181640625e+01
6.480819702148437500e+01
6.441320037841796875e+01
6.362319946289062500e+01
6.248925018310546875e+01
6.130400085449218750e+01
5.972383499145507812e+01
5.888339996337890625e+01
5.769850158691406250e+01
5.651350021362304688e+01
5.572349929809570312e+01
5.453860092163085938e+01
5.374860000610351562e+01
5.261229324340820312e+01
5.177370071411132812e+01
5.098379898071289062e+01
4.984660339355468750e+01
4.900880050659179688e+01
4.782389831542968750e+01
4.663890075683593750e+01
4.545399856567382812e+01
4.392057418823242188e+01
4.273532104492187500e+01
4.150419998168945312e+01
4.031919860839843750e+01
3.913430023193359375e+01
3.799446868896484375e+01
3.715940093994140625e+01
3.636940002441406250e+01
3.557939910888671875e+01
3.478950119018554688e+01
3.439450073242187500e+01
3.435091018676757812e+01
3.364782714843750000e+01
3.360449981689453125e+01
3.360449981689453125e+01
3.356196594238281250e+01
3.320949935913085938e+01
3.320949935913085938e+01
3.281449890136718750e+01
3.281449890136718750e+01
3.206581878662109375e+01
3.237864303588867188e+01
3.162960052490234375e+01
3.162960052490234375e+01
3.158943557739257812e+01
3.123460006713867188e+01
3.123460006713867188e+01
3.123460006713867188e+01
3.087871170043945312e+01
3.083959960937500000e+01
3.083959960937500000e+01
3.083959960937500000e+01
3.083959960937500000e+01
3.083959960937500000e+01
3.083959960937500000e+01
3.044459915161132812e+01
3.083959960937500000e+01
3.048134040832519531e+01
3.044459915161132812e+01
3.080338478088378906e+01
3.083959960937500000e+01
3.048028755187988281e+01
3.044459915161132812e+01
3.083959960937500000e+01
3.080470275878906250e+01
3.080496597290039062e+01
3.083959960937500000e+01
3.047870826721191406e+01
3.083959960937500000e+01
3.044459915161132812e+01
3.080628204345703125e+01
3.083959960937500000e+01
3.083959960937500000e+01
3.083959960937500000e+01
3.123460006713867188e+01
3.123460006713867188e+01
3.162960052490234375e+01
3.162960052490234375e+01
3.162960052490234375e+01
3.166054725646972656e+01
3.162960052490234375e+01
3.202460098266601562e+01
3.202460098266601562e+01
3.278461456298828125e+01
3.317987060546875000e+01
3.360449981689453125e+01
3.476039505004882812e+01
3.634056091308593750e+01
3.794929885864257812e+01
3.992419815063476562e+01
4.266104888916015625e+01
4.582121276855468750e+01
4.858637619018554688e+01
5.171918869018554688e+01
5.451160430908203125e+01
5.764503479003906250e+01
6.004193115234375000e+01
6.162209320068359375e+01
6.357131576538085938e+01
6.480819702148437500e+01
6.480819702148437500e+01
6.480819702148437500e+01
6.443808746337890625e+01
6.325282669067382812e+01
6.243830108642578125e+01
6.125329971313476562e+01
6.006840133666992188e+01
5.888339996337890625e+01
5.772180175781250000e+01
5.653654479980468750e+01
5.572349929809570312e+01
5.493360137939453125e+01
5.414360046386718750e+01
5.295869827270507812e+01
5.216870117187500000e+01
5.100526046752929688e+01
5.019380187988281250e+01
4.863483428955078125e+01
4.744957351684570312e+01
4.626440811157226562e+01
4.507914733886718750e+01
4.389397811889648438e+01
4.270872116088867188e+01
4.150419998168945312e+01
4.031919860839843750e+01
3.913430023193359375e+01
3.796786880493164062e+01
3.715940093994140625e+01
3.599244308471679688e+01
3.520217895507812500e+01
3.478950119018554688e+01
3.439450073242187500e+01
3.399950027465820312e+01
3.360449981689453125e+01
3.320949935913085938e+01
3.320949935913085938e+01
3.281449890136718750e+01
3.281449890136718750e+01
3.281449890136718750e+01
3.281449890136718750e+01
3.241960144042968750e+01
3.241960144042968750e+01
3.241960144042968750e+01
3.202460098266601562e+01
3.162960052490234375e+01
3.162960052490234375e+01
3.123460006713867188e+01
3.123460006713867188e+01
3.083959960937500000e+01
3.085210990905761719e+01
3.085184669494628906e+01
3.122261619567871094e+01
3.083959960937500000e+01
3.083959960937500000e+01
3.083959960937500000e+01
3.044459915161132812e+01
3.044459915161132812e+01
3.083959960937500000e+01
3.083959960937500000e+01
3.083959960937500000e+01
3.083959960937500000e+01
3.083959960937500000e+01
3.083959960937500000e+01
3.044459915161132812e+01
3.044459915161132812e+01
3.083959960937500000e+01
3.083959960937500000e+01
3.045236968994140625e+01
3.083209419250488281e+01
3.122735786437988281e+01
3.123460006713867188e+01
3.123460006713867188e+01
3.083959960937500000e+01
3.084578895568847656e+01
3.123460006713867188e+01
3.123460006713867188e+01
3.162960052490234375e+01
3.123460006713867188e+01
3.162960052490234375e+01
3.162960052490234375e+01
3.202025604248046875e+01
3.202460098266601562e+01
3.202460098266601562e+01
3.202815628051757812e+01
3.241960144042968750e+01
3.241960144042968750e+01
3.241683578491210938e+01
3.281449890136718750e+01
3.281449890136718750e+01
3.320949935913085938e+01
3.478778839111328125e+01
3.597294998168945312e+01
3.676440048217773438e+01
3.873745727539062500e+01
4.110788345336914062e+01
4.308370590209960938e+01
4.584873580932617188e+01
4.900893020629882812e+01
5.216949081420898438e+01
5.532991790771484375e+01
5.769942092895507812e+01
6.046329879760742188e+01
6.243974685668945312e+01
6.362319946289062500e+01
6.441517639160156250e+01
6.520310211181640625e+01
6.520310211181640625e+01
6.480543518066406250e+01
6.362319946289062500e+01
6.283319854736328125e+01
6.164474487304687500e+01
6.045948028564453125e+01
5.927431869506835938e+01
5.769850158691406250e+01
5.690389251708984375e+01
5.572349929809570312e+01
5.492846298217773438e+01
5.374860000610351562e+01
5.255803680419921875e+01
5.137277603149414062e+01
5.058261108398437500e+01
4.939734649658203125e+01
4.821889877319335938e+01
4.702692031860351562e+01
4.584175872802734375e+01
4.426900100708007812e+01
4.308409881591796875e+01
4.189116668701171875e+01
4.031919860839843750e+01
3.952074050903320312e+01
3.873047637939453125e+01
3.793112945556640625e+01
3.675505065917968750e+01
3.597439956665039062e+01
3.518439865112304688e+01
3.478950119018554688e+01
3.439450073242187500e+01
3.401016616821289062e+01
3.399950027465820312e+01
3.360449981689453125e+01
3.360449981689453125e+01
3.322122192382812500e+01
3.360449981689453125e+01
3.320949935913085938e+01
3.281449890136718750e+01
3.280173110961914062e+01
3.240656280517578125e+01
3.241960144042968750e+01
3.202460098266601562e+01
3.202460098266601562e+01
3.201050949096679688e+01
3.201024627685546875e+01
3.162960052490234375e+01
3.162960052490234375e+01
3.162960052490234375e+01
3.162960052490234375e+01
3.123460006713867188e+01
3.123460006713867188e+01
3.085579681396484375e+01
3.121813964843750000e+01
3.083959960937500000e+01
3.123460006713867188e+01
3.085685157775878906e+01
3.083959960937500000e+01
3.123460006713867188e+01
3.083959960937500000e+01
3.123460006713867188e+01
3.083959960937500000e+01
3.121576881408691406e+01
3.083959960937500000e+01
3.085895729064941406e+01
3.123460006713867188e+01
3.083959960937500000e+01
3.083959960937500000e+01
3.123460006713867188e+01
3.123460006713867188e+01
3.125553894042968750e+01
3.125580215454101562e+01
3.162960052490234375e+01
3.165132904052734375e+01
3.202460098266601562e+01
3.200234603881835938e+01
3.162960052490234375e+01
3.202460098266601562e+01
3.202460098266601562e+01
3.202460098266601562e+01
3.204817199707031250e+01
3.241960144042968750e+01
3.281449890136718750e+01
3.320949935913085938e+01
3.402412414550781250e+01
3.518439865112304688e+01
3.636940002441406250e+01
3.836971664428710938e+01
4.071419906616210938e+01
4.271504211425781250e+01
4.550641250610351562e+01
4.827183151245117188e+01
5.180043411254882812e+01
5.459259414672851562e+01
5.733076095581054688e+01
5.970092391967773438e+01
6.207108688354492188e+01
6.286124801635742188e+01
6.365151214599609375e+01
6.444178009033203125e+01
6.441320037841796875e+01
6.362319946289062500e+01
6.322819900512695312e+01
6.240866851806640625e+01
6.082840728759765625e+01
5.964324188232421875e+01
5.845798110961914062e+01
5.730350112915039062e+01
5.611849975585937500e+01
5.529738998413085938e+01
5.450712585449218750e+01
5.335369873046875000e+01
5.256370162963867188e+01
5.137870025634765625e+01
5.019380187988281250e+01
4.937100982666015625e+01
4.821889877319335938e+01
4.700058364868164062e+01
4.581541824340820312e+01
4.463015747070312500e+01
4.344499206542968750e+01
4.189920043945312500e+01
4.071419906616210938e+01
3.988931274414062500e+01
3.870413970947265625e+01
3.791387557983398438e+01
3.672871398925781250e+01
3.597439956665039062e+01
3.554318618774414062e+01
3.478950119018554688e+01
3.435775756835937500e+01
3.399950027465820312e+01
3.364176940917968750e+01
3.360449981689453125e+01
3.356670379638671875e+01
3.356644058227539062e+01
3.317117691040039062e+01
3.281449890136718750e+01
3.281449890136718750e+01
3.281449890136718750e+01
3.241960144042968750e+01
3.202460098266601562e+01
3.198469924926757812e+01
3.166976547241210938e+01
3.162960052490234375e+01
3.158890914916992188e+01
3.123460006713867188e+01
3.123460006713867188e+01
3.119311714172363281e+01
3.119285392761230469e+01
3.123460006713867188e+01
3.083959960937500000e+01
3.083959960937500000e+01
3.083959960937500000e+01
3.083959960937500000e+01
3.123460006713867188e+01
3.123460006713867188e+01
3.083959960937500000e+01
3.083959960937500000e+01
3.083959960937500000e+01
3.079495811462402344e+01
3.044459915161132812e+01
3.083959960937500000e+01
3.079416656494140625e+01
3.083959960937500000e+01
3.083959960937500000e+01
3.083959960937500000e+01
3.123460006713867188e+01
3.123460006713867188e+01
3.083959960937500000e+01
3.123460006713867188e+01
3.088714027404785156e+01
3.123460006713867188e+01
3.123460006713867188e+01
3.162960052490234375e+01
3.158100700378417969e+01
3.197574424743652344e+01
3.202460098266601562e+01
3.202460098266601562e+01
3.202460098266601562e+01
3.207450866699218750e+01
3.236942672729492188e+01
3.241960144042968750e+01
3.247028732299804688e+01
3.360449981689453125e+01
3.478950119018554688e+01
3.557939910888671875e+01
3.715940093994140625e+01
3.884333419799804688e+01
4.076647949218750000e+01
4.279418563842773438e+01
4.595460128784179688e+01
4.911494064331054688e+01
5.227536773681640625e+01
5.538218307495117188e+01
5.814725875854492188e+01
6.096654891967773438e+01
6.249267196655273438e+01
6.367785263061523438e+01
6.446811676025390625e+01
6.520310211181640625e+01
6.480819702148437500e+01
6.401820373535156250e+01
6.356723403930664062e+01
6.204330062866210938e+01
6.080180740356445312e+01
5.961664199829101562e+01
5.843137741088867188e+01
5.724621582031250000e+01
5.611849975585937500e+01
5.493360137939453125e+01
5.414360046386718750e+01
5.329536056518554688e+01
5.216870117187500000e+01
5.137870025634765625e+01
5.052967071533203125e+01
4.968001556396484375e+01
4.815924453735351562e+01
4.697397994995117188e+01
4.578881835937500000e+01
4.460355377197265625e+01
4.308409881591796875e+01
4.183822631835937500e+01
4.025796508789062500e+01
3.952930068969726562e+01
3.834429931640625000e+01
3.749229049682617188e+01
3.676440048217773438e+01
3.597439956665039062e+01
3.518439865112304688e+01
3.478950119018554688e+01
3.439450073242187500e+01
3.399950027465820312e+01
3.360449981689453125e+01
3.360449981689453125e+01
3.320949935913085938e+01
3.320949935913085938e+01
3.320949935913085938e+01
3.320949935913085938e+01
3.320949935913085938e+01
3.281449890136718750e+01
3.241960144042968750e+01
3.241960144042968750e+01
3.202460098266601562e+01
3.202460098266601562e+01
3.195757102966308594e+01
3.195730781555175781e+01
3.162960052490234375e+01
3.162960052490234375e+01
3.162960052490234375e+01
3.123460006713867188e+01
3.123460006713867188e+01
3.083959960937500000e+01
3.090873718261718750e+01
3.123460006713867188e+01
3.123460006713867188e+01
3.123460006713867188e+01
3.116440963745117188e+01
3.116414642333984375e+01
3.123460006713867188e+01
3.123460006713867188e+01
3.091084289550781250e+01
3.123460006713867188e+01
3.083959960937500000e+01
3.116256713867187500e+01
3.123460006713867188e+01
3.116203880310058594e+01
3.123460006713867188e+01
3.123460006713867188e+01
3.091295051574707031e+01
3.123460006713867188e+01
3.123460006713867188e+01
3.123460006713867188e+01
3.123460006713867188e+01
3.130926704406738281e+01
3.162960052490234375e+01
3.162960052490234375e+01
3.194914245605468750e+01
3.202460098266601562e+01
3.202460098266601562e+01
3.241960144042968750e+01
3.241960144042968750e+01
3.249635314941406250e+01
3.289153671264648438e+01
3.368180084228515625e+01
3.478950119018554688e+01
3.526222610473632812e+01
3.723747253417968750e+01
3.921265411376953125e+01
4.150419998168945312e+01
4.363684463500976562e+01
4.679719161987304688e+01
4.995761489868164062e+01
5.311802291870117188e+01
5.580343627929687500e+01
5.856859970092773438e+01
6.133376312255859375e+01
6.291392517089843750e+01
6.401820373535156250e+01
6.520310211181640625e+01
6.559809875488281250e+01
6.480819702148437500e+01
6.401820373535156250e+01
6.314589309692382812e+01
6.204330062866210938e+01
6.077546691894531250e+01
5.967340087890625000e+01
5.848839950561523438e+01
5.730350112915039062e+01
5.642961502075195312e+01
5.532860183715820312e+01
5.445418930053710938e+01
5.335369873046875000e+01
5.247875976562500000e+01
5.168849563598632812e+01
5.050333404541015625e+01
4.979880142211914062e+01
4.861389923095703125e+01
4.734264373779296875e+01
4.624399948120117188e+01
4.497221755981445312e+01
4.347909927368164062e+01
4.229410171508789062e+01
4.102162551879882812e+01
4.023136520385742188e+01
3.904619979858398438e+01
3.786093521118164062e+01
3.676440048217773438e+01
3.628050994873046875e+01
3.549024581909179688e+01
3.478950119018554688e+01
3.439450073242187500e+01
3.399950027465820312e+01
3.360449981689453125e+01
3.360449981689453125e+01
3.351376724243164062e+01
3.360449981689453125e+01
3.320949935913085938e+01
3.311797714233398438e+01
3.290628814697265625e+01
3.281449890136718750e+01
3.272220993041992188e+01
3.241960144042968750e+01
3.202460098266601562e+01
3.202460098266601562e+01
3.202460098266601562e+01
3.193096923828125000e+01
3.162960052490234375e+01
3.162960052490234375e+01
3.162960052490234375e+01
3.153491592407226562e+01
3.132954788208007812e+01
3.132981109619140625e+01
3.123460006713867188e+01
3.123460006713867188e+01
3.123460006713867188e+01
3.113833618164062500e+01
3.123460006713867188e+01
3.123460006713867188e+01
3.093665504455566406e+01
3.123460006713867188e+01
3.083959960937500000e+01
3.083959960937500000e+01
3.113649177551269531e+01
3.093797111511230469e+01
3.083959960937500000e+01
3.093849754333496094e+01
3.123460006713867188e+01
3.123460006713867188e+01
3.123460006713867188e+01
3.162960052490234375e+01
3.152938461303710938e+01
3.123460006713867188e+01
3.152885818481445312e+01
3.152859497070312500e+01
3.162960052490234375e+01
3.162960052490234375e+01
3.202460098266601562e+01
3.202460098266601562e+01
3.202460098266601562e+01
3.241960144042968750e+01
3.241960144042968750e+01
3.281449890136718750e+01
3.291787719726562500e+01
3.360449981689453125e+01
3.439450073242187500e+01
3.518439865112304688e+01
3.686882781982421875e+01
3.855368423461914062e+01
4.071419906616210938e+01
4.329453659057617188e+01
4.605994033813476562e+01
4.911454772949218750e+01
5.238071823120117188e+01
5.514611816406250000e+01
5.819993591308593750e+01
6.067689895629882812e+01
6.243830108642578125e+01
6.373052597045898438e+01
6.452079010009765625e+01
6.520310211181640625e+01
6.470008087158203125e+01
6.401820373535156250e+01
6.362319946289062500e+01
6.232939529418945312e+01
6.114413070678710938e+01
5.995896530151367188e+01
5.877370452880859375e+01
5.758853912353515625e+01
5.651350021362304688e+01
5.561304092407226562e+01
5.453860092163085938e+01
5.374860000610351562e+01
5.284742355346679688e+01
5.177370071411132812e+01
5.098379898071289062e+01
5.047673416137695312e+01
4.929146957397460938e+01
4.810630798339843750e+01
4.692104339599609375e+01
4.573587799072265625e+01
4.415564346313476562e+01
4.268909835815429688e+01
4.139028930664062500e+01
4.031919860839843750e+01
3.941486358642578125e+01
3.834429931640625000e+01
3.715940093994140625e+01
3.636940002441406250e+01
3.557939910888671875e+01
3.478950119018554688e+01
3.439450073242187500e+01
3.388322067260742188e+01
3.360449981689453125e+01
3.348769378662109375e+01
3.320949935913085938e+01
3.320949935913085938e+01
3.281449890136718750e+01
3.281449890136718750e+01
3.241960144042968750e+01
3.241960144042968750e+01
3.202460098266601562e+01
3.202460098266601562e+01
3.162960052490234375e+01
3.162960052490234375e+01
3.150989532470703125e+01
3.162960052490234375e+01
3.123460006713867188e+01
3.123460006713867188e+01
3.123460006713867188e+01
3.096062278747558594e+01
3.123460006713867188e+01
3.096114921569824219e+01
3.083959960937500000e+01
3.083959960937500000e+01
3.071726036071777344e+01
3.083959960937500000e+01
3.083959960937500000e+01
3.071647071838378906e+01
3.083959960937500000e+01
3.056825637817382812e+01
3.083959960937500000e+01
3.044459915161132812e+01
3.083959960937500000e+01
3.083959960937500000e+01
3.083959960937500000e+01
3.056983566284179688e+01
3.057009887695312500e+01
3.083959960937500000e+01
3.083959960937500000e+01
3.096588897705078125e+01
3.123460006713867188e+01
3.096641540527343750e+01
3.096667861938476562e+01
3.083959960937500000e+01
3.123460006713867188e+01
3.136246871948242188e+01
3.136273384094238281e+01
3.162960052490234375e+01
3.162960052490234375e+01
3.175852394104003906e+01
3.162960052490234375e+01
3.202460098266601562e+01
3.202460098266601562e+01
3.202460098266601562e+01
3.241960144042968750e+01
3.241960144042968750e+01
3.294526672363281250e+01
3.334053039550781250e+01
3.399950027465820312e+01
3.478950119018554688e+01
3.610622024536132812e+01
3.768638229370117188e+01
3.900399398803710938e+01
4.176938629150390625e+01
4.440187454223632812e+01
4.730017471313476562e+01
5.032720184326171875e+01
5.322599411010742188e+01
5.664742660522460938e+01
5.901758956909179688e+01
6.112720870971679688e+01
6.296791839599609375e+01
6.480819702148437500e+01
6.480819702148437500e+01
6.520310211181640625e+01
6.520310211181640625e+01
6.441320037841796875e+01
6.348690414428710938e+01
6.243830108642578125e+01
6.111647415161132812e+01
5.993131256103515625e+01
5.848839950561523438e+01
5.756088638305664062e+01
5.651350021362304688e+01
5.519046020507812500e+01
5.440019607543945312e+01
5.295869827270507812e+01
5.216870117187500000e+01
5.098379898071289062e+01
5.005434036254882812e+01
4.900880050659179688e+01
4.782389831542968750e+01
4.689365005493164062e+01
4.545399856567382812e+01
4.426900100708007812e+01
4.308409881591796875e+01
4.175789642333984375e+01
4.031919860839843750e+01
3.938747024536132812e+01
3.859720611572265625e+01
3.780694580078125000e+01
3.662178039550781250e+01
3.583151626586914062e+01
3.557939910888671875e+01
3.518439865112304688e+01
3.439450073242187500e+01
3.439450073242187500e+01
3.399950027465820312e+01
3.399950027465820312e+01
3.360449981689453125e+01
3.320949935913085938e+01
3.320949935913085938e+01
3.281449890136718750e+01
3.281449890136718750e+01
3.266849517822265625e+01
3.256586837768554688e+01
3.241960144042968750e+01
3.202460098266601562e+01
3.202460098266601562e+01
3.187724113464355469e+01
3.162960052490234375e+01
3.162960052490234375e+01
3.148145103454589844e+01
3.162960052490234375e+01
3.162960052490234375e+01
3.148065948486328125e+01
3.123460006713867188e+01
3.123460006713867188e+01
3.123460006713867188e+01
3.123460006713867188e+01
3.123460006713867188e+01
3.123460006713867188e+01
3.108381652832031250e+01
3.123460006713867188e+01
3.108329010009765625e+01
3.083959960937500000e+01
3.123460006713867188e+01
3.099170112609863281e+01
3.123460006713867188e+01
3.123460006713867188e+01
3.083959960937500000e+01
3.123460006713867188e+01
3.108118247985839844e+01
3.123460006713867188e+01
3.123460006713867188e+01
3.138880729675292969e+01
3.162960052490234375e+01
3.162960052490234375e+01
3.178459739685058594e+01
3.186933898925781250e+01
3.178512382507324219e+01
3.202460098266601562e+01
3.202460098266601562e+01
3.218091583251953125e+01
3.226302337646484375e+01
3.202460098266601562e+01
3.241960144042968750e+01
3.320949935913085938e+01
3.360449981689453125e+01
3.439450073242187500e+01
3.534255981445312500e+01
3.676440048217773438e+01
3.826667022705078125e+01
4.087314987182617188e+01
4.324331283569335938e+01
4.577294921875000000e+01
4.877359771728515625e+01
5.209370422363281250e+01
5.485913085937500000e+01
5.785898590087890625e+01
5.983419036865234375e+01
6.197040939331054688e+01
6.362319946289062500e+01
6.401820373535156250e+01
6.441320037841796875e+01
6.441320037841796875e+01
6.378557205200195312e+01
6.283319854736328125e+01
6.204330062866210938e+01
6.069513702392578125e+01
5.950997543334960938e+01
5.809339904785156250e+01
5.697559356689453125e+01
5.572349929809570312e+01
5.476911926269531250e+01
5.374860000610351562e+01
5.279369354248046875e+01
5.216870117187500000e+01
5.137870025634765625e+01
5.019380187988281250e+01
4.923773956298828125e+01
4.782389831542968750e+01
4.686731338500976562e+01
4.528715133666992188e+01
4.410192871093750000e+01
4.291672515869140625e+01
4.173155975341796875e+01
4.054629516601562500e+01
3.936113357543945312e+01
3.857086944580078125e+01
3.755429840087890625e+01
3.659544372558593750e+01
3.557939910888671875e+01
3.518439865112304688e+01
3.478950119018554688e+01
3.439450073242187500e+01
3.399950027465820312e+01
3.399950027465820312e+01
3.399950027465820312e+01
3.360449981689453125e+01
3.360449981689453125e+01
3.320949935913085938e+01
3.281449890136718750e+01
3.281449890136718750e+01
3.264216232299804688e+01
3.264189910888671875e+01
3.241960144042968750e+01
3.202460098266601562e+01
3.241960144042968750e+01
3.202460098266601562e+01
3.162960052490234375e+01
3.162960052490234375e+01
3.123460006713867188e+01
3.140935134887695312e+01
3.145458602905273438e+01
3.123460006713867188e+01
3.123460006713867188e+01
3.123460006713867188e+01
3.123460006713867188e+01
3.123460006713867188e+01
3.083959960937500000e+01
3.083959960937500000e+01
3.083959960937500000e+01
3.083959960937500000e+01
3.105695152282714844e+01
3.123460006713867188e+01
3.105642509460449219e+01
3.083959960937500000e+01
3.101830101013183594e+01
3.101856422424316406e+01
3.101882743835449219e+01
3.123460006713867188e+01
3.123460006713867188e+01
3.144958114624023438e+01
3.162960052490234375e+01
3.162960052490234375e+01
3.162960052490234375e+01
3.162960052490234375e+01
3.162960052490234375e+01
3.202460098266601562e+01
3.181146240234375000e+01
3.162960052490234375e+01
3.202460098266601562e+01
3.181225204467773438e+01
3.202460098266601562e+01
3.202460098266601562e+01
3.260299682617187500e+01
3.299820709228515625e+01
3.360449981689453125e+01
3.439450073242187500e+01
3.536889648437500000e+01
3.676440048217773438e+01
3.813432312011718750e+01
4.068977355957031250e+01
4.326964950561523438e+01
4.582562637329101562e+01
4.879993057250976562e+01
5.175137710571289062e+01
5.491180419921875000e+01
5.767718505859375000e+01
5.965266036987304688e+01
6.183569335937500000e+01
6.362319946289062500e+01
6.420612335205078125e+01
6.441320037841796875e+01
6.480819702148437500e+01
6.401820373535156250e+01
6.303922653198242188e+01
6.204330062866210938e+01
6.066880035400390625e+01
5.948363494873046875e+01
5.828342819213867188e+01
5.711320877075195312e+01
5.611849975585937500e+01
5.513778305053710938e+01
5.414360046386718750e+01
5.335369873046875000e+01
5.237209320068359375e+01
5.137870025634765625e+01
5.039666748046875000e+01
4.921140289306640625e+01
4.802624130249023438e+01
4.684097671508789062e+01
4.584899902343750000e+01
4.447055053710937500e+01
4.347909927368164062e+01
4.229410171508789062e+01
4.130995941162109375e+01
3.992419815063476562e+01
3.873929977416992188e+01
3.755429840087890625e+01
3.636940002441406250e+01
3.557939910888671875e+01
3.518439865112304688e+01
3.459341430664062500e+01
3.419815063476562500e+01
3.399950027465820312e+01
3.360449981689453125e+01
3.340736389160156250e+01
3.340690231323242188e+01
3.320949935913085938e+01
3.301157379150390625e+01
3.281449890136718750e+01
3.281449890136718750e+01
3.261583328247070312e+01
3.281449890136718750e+01
3.241960144042968750e+01
3.241960144042968750e+01
3.221982955932617188e+01
3.221956634521484375e+01
3.241960144042968750e+01
3.241960144042968750e+01
3.262037277221679688e+01
3.320949935913085938e+01
3.399950027465820312e+01
3.420111465454101562e+01
3.538628005981445312e+01
3.657154083251953125e+01
3.815170669555664062e+01
3.873929977416992188e+01
3.973218154907226562e+01
4.031919860839843750e+01
4.110919952392578125e+01
4.150419998168945312e+01
4.150419998168945312e+01
4.189920043945312500e+01
4.129968643188476562e+01
4.090442276000976562e+01
4.031919860839843750e+01
3.952930068969726562e+01
3.813873291015625000e+01
3.715940093994140625e+01
3.636940002441406250e+01
3.537304306030273438e+01
3.458288192749023438e+01
3.339761734008789062e+01
3.281449890136718750e+01
3.260714340209960938e+01
3.241960144042968750e+01
3.241960144042968750e+01
3.223279953002929688e+01
3.223306274414062500e+01
3.221087265014648438e+01
3.241960144042968750e+01
3.221034622192382812e+01
3.241960144042968750e+01
3.241960144042968750e+01
3.241960144042968750e+01
3.202460098266601562e+01
3.241960144042968750e+01
3.202460098266601562e+01
3.223569869995117188e+01
3.223596191406250000e+01
3.241960144042968750e+01
3.220771408081054688e+01
3.241960144042968750e+01
3.241960144042968750e+01
3.223727798461914062e+01
3.241960144042968750e+01
3.202460098266601562e+01
3.202460098266601562e+01
3.241960144042968750e+01
3.241960144042968750e+01
3.223885726928710938e+01
3.241960144042968750e+01
3.241960144042968750e+01
3.223964691162109375e+01
3.241960144042968750e+01
3.241960144042968750e+01
3.281449890136718750e+01
3.241960144042968750e+01
3.241960144042968750e+01
3.241960144042968750e+01
3.281449890136718750e+01
3.281449890136718750e+01
3.281449890136718750e+01
3.259687423706054688e+01
3.281449890136718750e+01
3.281449890136718750e+01
3.320949935913085938e+01
3.281449890136718750e+01
3.299050140380859375e+01
3.299023818969726562e+01
3.281449890136718750e+01
3.320949935913085938e+01
3.342955017089843750e+01
3.320949935913085938e+01
3.360449981689453125e+01
3.343034362792968750e+01
3.320949935913085938e+01
3.360449981689453125e+01
3.360449981689453125e+01
3.399950027465820312e+01
3.399950027465820312e+01
3.377707672119140625e+01
3.382718658447265625e+01
3.399950027465820312e+01
3.382771301269531250e+01
3.382797622680664062e+01
3.377576065063476562e+01
3.399950027465820312e+01
3.399950027465820312e+01
3.422402954101562500e+01
3.422429275512695312e+01
3.399950027465820312e+01
3.399950027465820312e+01
3.399950027465820312e+01
3.439450073242187500e+01
3.439450073242187500e+01
3.478950119018554688e+01
3.456286239624023438e+01
3.439450073242187500e+01
3.439450073242187500e+01
3.478950119018554688e+01
3.456180953979492188e+01
3.462245178222656250e+01
3.478950119018554688e+01
3.462297821044921875e+01
3.462324142456054688e+01
3.478950119018554688e+01
3.439450073242187500e+01
3.478950119018554688e+01
3.501923751831054688e+01
3.501950073242187500e+01
3.495413589477539062e+01
3.502002716064453125e+01
3.502029037475585938e+01
3.518439865112304688e+01
3.518439865112304688e+01
3.557939910888671875e+01
3.557939910888671875e+01
3.518439865112304688e+01
3.557939910888671875e+01
3.518439865112304688e+01
3.557939910888671875e+01
3.557939910888671875e+01
3.597439956665039062e+01
3.620814895629882812e+01
3.636940002441406250e+01
3.699867248535156250e+01
3.778883743286132812e+01
3.873929977416992188e+01
4.015926361083984375e+01
4.213446807861328125e+01
4.450458908081054688e+01
4.671564865112304688e+01
4.987603378295898438e+01
5.303646087646484375e+01
5.659178924560546875e+01
5.991030883789062500e+01
6.291258239746093750e+01
6.607296752929687500e+01
6.899569702148437500e+01
7.073290252685546875e+01
7.215602111816406250e+01
7.373628997802734375e+01
7.349780273437500000e+01
7.286378479003906250e+01
7.231279754638671875e+01
7.088835906982421875e+01
6.930815887451171875e+01
6.757299804687500000e+01
6.614776611328125000e+01
6.456760406494140625e+01
6.298734283447265625e+01
6.125329971313476562e+01
6.006840133666992188e+01
5.824674987792968750e+01
5.706158828735351562e+01
5.572349929809570312e+01
5.429616165161132812e+01
5.311099624633789062e+01
5.192573547363281250e+01
5.034556961059570312e+01
4.900880050659179688e+01
4.758014297485351562e+01
4.624399948120117188e+01
4.466400146484375000e+01
4.323455429077148438e+01
4.229410171508789062e+01
4.125912857055664062e+01
4.046886444091796875e+01
3.928369903564453125e+01
3.873929977416992188e+01
3.809817504882812500e+01
3.730797195434570312e+01
3.691274642944335938e+01
3.636940002441406250e+01
3.636940002441406250e+01
3.597439956665039062e+01
3.557939910888671875e+01
3.518439865112304688e+01
3.518439865112304688e+01
3.518439865112304688e+01
3.454074096679687500e+01
3.439450073242187500e+01
3.439450073242187500e+01
3.414495086669921875e+01
3.399950027465820312e+01
3.360449981689453125e+01
3.320949935913085938e+01
3.320949935913085938e+01
3.306536865234375000e+01
3.281449890136718750e+01
3.256317138671875000e+01
3.241960144042968750e+01
3.241960144042968750e+01
3.216741561889648438e+01
3.227704620361328125e+01
3.227730941772460938e+01
3.202460098266601562e+01
3.202460098266601562e+01
3.202460098266601562e+01
3.202460098266601562e+01
3.177057266235351562e+01
3.188389015197753906e+01
3.202460098266601562e+01
3.202460098266601562e+01
3.202460098266601562e+01
3.162960052490234375e+01
3.162960052490234375e+01
3.202460098266601562e+01
3.176846504211425781e+01
3.188599777221679688e+01
3.202460098266601562e+01
3.188652420043945312e+01
3.188678741455078125e+01
3.202460098266601562e+01
3.202460098266601562e+01
3.241960144042968750e+01
3.202460098266601562e+01
3.202460098266601562e+01
3.202460098266601562e+01
3.241960144042968750e+01
3.241960144042968750e+01
3.241960144042968750e+01
3.241960144042968750e+01
3.281449890136718750e+01
3.307484817504882812e+01
3.307511138916015625e+01
3.307537460327148438e+01
3.320949935913085938e+01
3.320949935913085938e+01
3.386616516113281250e+01
3.439450073242187500e+01
3.505162429809570312e+01
3.623685455322265625e+01
3.781702041625976562e+01
3.939728164672851562e+01
4.137244415283203125e+01
4.413754272460937500e+01
4.650770568847656250e+01
4.953687286376953125e+01
5.269729995727539062e+01
5.598806381225585938e+01
5.901805114746093750e+01
6.112339019775390625e+01
6.309855270385742188e+01
6.507374572753906250e+01
6.599310302734375000e+01
6.586424255371093750e+01
6.586450958251953125e+01
6.572643280029296875e+01
6.480819702148437500e+01
6.335600280761718750e+01
6.217084121704101562e+01
6.125329971313476562e+01
5.940541458129882812e+01
5.848839950561523438e+01
5.742998504638671875e+01
5.584972381591796875e+01
5.493360137939453125e+01
5.387429809570312500e+01
5.295869827270507812e+01
5.189886856079101562e+01
5.098379898071289062e+01
4.992344284057617188e+01
4.861389923095703125e+01
4.742890167236328125e+01
4.624399948120117188e+01
4.478759002685546875e+01
4.387409973144531250e+01
4.241716384887695312e+01
4.123199844360351562e+01
4.004673767089843750e+01
3.886157226562500000e+01
3.807130813598632812e+01
3.728111648559570312e+01
3.636940002441406250e+01
3.545817947387695312e+01
3.478950119018554688e+01
3.478950119018554688e+01
3.399950027465820312e+01
3.399950027465820312e+01
3.372440338134765625e+01
3.360449981689453125e+01
3.360449981689453125e+01
3.320949935913085938e+01
3.320949935913085938e+01
3.281449890136718750e+01
3.281449890136718750e+01
3.241960144042968750e+01
3.241960144042968750e+01
3.241960144042968750e+01
3.214186859130859375e+01
3.202460098266601562e+01
3.202460098266601562e+01
3.174607849121093750e+01
3.190838432312011719e+01
3.162960052490234375e+01
3.162960052490234375e+01
3.162960052490234375e+01
3.134976196289062500e+01
3.162960052490234375e+01
3.162960052490234375e+01
3.134897232055664062e+01
3.123460006713867188e+01
3.162960052490234375e+01
3.151601791381835938e+01
3.162960052490234375e+01
3.151654624938964844e+01
3.162960052490234375e+01
3.162960052490234375e+01
3.162960052490234375e+01
3.174160194396972656e+01
3.191286277770996094e+01
3.174107360839843750e+01
3.202460098266601562e+01
3.191365242004394531e+01
3.202460098266601562e+01
3.162960052490234375e+01
3.162960052490234375e+01
3.162960052490234375e+01
3.191496849060058594e+01
3.202460098266601562e+01
3.231049728393554688e+01
3.202460098266601562e+01
3.241960144042968750e+01
3.202460098266601562e+01
3.241960144042968750e+01
3.241960144042968750e+01
3.241960144042968750e+01
3.241960144042968750e+01
3.320949935913085938e+01
3.360449981689453125e+01
3.399950027465820312e+01
3.518439865112304688e+01
3.665845489501953125e+01
3.823862075805664062e+01
4.021378326416015625e+01
4.247882080078125000e+01
4.484922027587890625e+01
4.761464691162109375e+01
5.077507400512695312e+01
5.364452743530273438e+01
5.709582519531250000e+01
5.877982711791992188e+01
6.075498962402343750e+01
6.273017883300781250e+01
6.372598266601562500e+01
6.401820373535156250e+01
6.441320037841796875e+01
6.412019348144531250e+01
6.322819900512695312e+01
6.204330062866210938e+01
6.135450363159179688e+01
6.006840133666992188e+01
5.858907699584960938e+01
5.740391159057617188e+01
5.611849975585937500e+01
5.503348541259765625e+01
5.384822082519531250e+01
5.305805969238281250e+01
5.216870117187500000e+01
5.147753143310546875e+01
5.029236984252929688e+01
4.910710525512695312e+01
4.782389831542968750e+01
4.663890075683593750e+01
4.545399856567382812e+01
4.397132873535156250e+01
4.268909835815429688e+01
4.150419998168945312e+01
4.071419906616210938e+01
3.952930068969726562e+01
3.873929977416992188e+01
3.755429840087890625e+01
3.685980987548828125e+01
3.606954574584960938e+01
3.527928161621093750e+01
3.478950119018554688e+01
3.439450073242187500e+01
3.399950027465820312e+01
3.399950027465820312e+01
3.360449981689453125e+01
3.369779968261718750e+01
3.360449981689453125e+01
3.320949935913085938e+01
3.360449981689453125e+01
3.320949935913085938e+01
3.290648269653320312e+01
3.320949935913085938e+01
3.281449890136718750e+01
3.281449890136718750e+01
3.251050949096679688e+01
3.251024627685546875e+01
3.241960144042968750e+01
3.241960144042968750e+01
3.241960144042968750e+01
3.202460098266601562e+01
3.202460098266601562e+01
3.162960052490234375e+01
3.162960052490234375e+01
3.162960052490234375e+01
3.202460098266601562e+01
3.162960052490234375e+01
3.162960052490234375e+01
3.162960052490234375e+01
3.123460006713867188e+01
3.132158088684082031e+01
3.162960052490234375e+01
3.123460006713867188e+01
3.123460006713867188e+01
3.154367256164550781e+01
3.132026290893554688e+01
3.162960052490234375e+01
3.162960052490234375e+01
3.154472732543945312e+01
3.193999099731445312e+01
3.171394729614257812e+01
3.202460098266601562e+01
3.194078063964843750e+01
3.202460098266601562e+01
3.241960144042968750e+01
3.210762786865234375e+01
3.233683395385742188e+01
3.202460098266601562e+01
3.241960144042968750e+01
3.241960144042968750e+01
3.281449890136718750e+01
3.312805175781250000e+01
3.352331542968750000e+01
3.391857910156250000e+01
3.510375976562500000e+01
3.597439956665039062e+01
3.747418594360351562e+01
3.913430023193359375e+01
4.181959533691406250e+01
4.450533676147460938e+01
4.695482254028320312e+01
5.043116760253906250e+01
5.359151458740234375e+01
5.675192260742187500e+01
5.880537414550781250e+01
6.085829925537109375e+01
6.275572204589843750e+01
6.362319946289062500e+01
6.401820373535156250e+01
6.441320037841796875e+01
6.401820373535156250e+01
6.290938186645507812e+01
6.204330062866210938e+01
6.093395614624023438e+01
5.967340087890625000e+01
5.816852951049804688e+01
5.698336410522460938e+01
5.611849975585937500e+01
5.461293792724609375e+01
5.382267379760742188e+01
5.263751220703125000e+01
5.184724807739257812e+01
5.105706787109375000e+01
5.019380187988281250e+01
4.940380096435546875e+01
4.829139328002929688e+01
4.742890167236328125e+01
4.592096710205078125e+01
4.466400146484375000e+01
4.347909927368164062e+01
4.197035980224609375e+01
4.118011474609375000e+01
4.031919860839843750e+01
3.920468902587890625e+01
3.834429931640625000e+01
3.722924423217773438e+01
3.643899917602539062e+01
3.564873504638671875e+01
3.525347137451171875e+01
3.485829162597656250e+01
3.439450073242187500e+01
3.399950027465820312e+01
3.399950027465820312e+01
3.360449981689453125e+01
3.360449981689453125e+01
3.327672576904296875e+01
3.327646255493164062e+01
3.320949935913085938e+01
3.320949935913085938e+01
3.281449890136718750e+01
3.241960144042968750e+01
3.241960144042968750e+01
3.202460098266601562e+01
3.235448074340820312e+01
3.202460098266601562e+01
3.202460098266601562e+01
3.169392967224121094e+01
3.169366645812988281e+01
3.169340324401855469e+01
3.202460098266601562e+01
3.162960052490234375e+01
3.162960052490234375e+01
3.156685066223144531e+01
3.123460006713867188e+01
3.123460006713867188e+01
3.129656028747558594e+01
3.156790351867675781e+01
3.162960052490234375e+01
3.162960052490234375e+01
3.162960052490234375e+01
3.162960052490234375e+01
3.123460006713867188e+01
3.123460006713867188e+01
3.162960052490234375e+01
3.162960052490234375e+01
3.129392623901367188e+01
3.162960052490234375e+01
3.157080078125000000e+01
3.162960052490234375e+01
3.162960052490234375e+01
3.202460098266601562e+01
3.202460098266601562e+01
3.202460098266601562e+01
3.202460098266601562e+01
3.241960144042968750e+01
3.202460098266601562e+01
3.208102798461914062e+01
3.236343383789062500e+01
3.241960144042968750e+01
3.281449890136718750e+01
3.320949935913085938e+01
3.399950027465820312e+01
3.512956619262695312e+01
3.631481552124023438e+01
3.789497756958007812e+01
3.952930068969726562e+01
4.179161071777343750e+01
4.455694961547851562e+01
4.771736526489257812e+01
5.053579711914062500e+01
5.330096054077148438e+01
5.640854263305664062e+01
5.883118438720703125e+01
6.120134735107421875e+01
6.243830108642578125e+01
6.362319946289062500e+01
6.475704193115234375e+01
6.446409606933593750e+01
6.406883239746093750e+01
6.362319946289062500e+01
6.283319854736328125e+01
6.130314254760742188e+01
6.011796951293945312e+01
5.888339996337890625e+01
5.769850158691406250e+01
5.656229019165039062e+01
5.537711334228515625e+01
5.453860092163085938e+01
5.340168762207031250e+01
5.256370162963867188e+01
5.137870025634765625e+01
5.058879852294921875e+01
4.979880142211914062e+01
4.826558303833007812e+01
4.742890167236328125e+01
4.629014587402343750e+01
4.470989227294921875e+01
4.387409973144531250e+01
4.268909835815429688e+01
4.115430450439453125e+01
4.031919860839843750e+01
3.878387832641601562e+01
3.794929885864257812e+01
3.680844879150390625e+01
3.636940002441406250e+01
3.562292480468750000e+01
3.483274841308593750e+01
3.439450073242187500e+01
3.439450073242187500e+01
3.399950027465820312e+01
3.360449981689453125e+01
3.360449981689453125e+01
3.360449981689453125e+01
3.320949935913085938e+01
3.356334686279296875e+01
3.320949935913085938e+01
3.285512542724609375e+01
3.281449890136718750e+01
3.241960144042968750e+01
3.237976455688476562e+01
3.202460098266601562e+01
3.166890907287597656e+01
3.202460098266601562e+01
3.162960052490234375e+01
3.162960052490234375e+01
3.127285575866699219e+01
3.123460006713867188e+01
3.159187126159667969e+01
3.159213447570800781e+01
3.123460006713867188e+01
3.162960052490234375e+01
3.162960052490234375e+01
3.123460006713867188e+01
3.127074813842773438e+01
3.162960052490234375e+01
3.127022171020507812e+01
3.162960052490234375e+01
3.162960052490234375e+01
3.162960052490234375e+01
3.162960052490234375e+01
3.159529495239257812e+01
3.159555816650390625e+01
3.162960052490234375e+01
3.162960052490234375e+01
3.159634780883789062e+01
3.162960052490234375e+01
3.199187469482421875e+01
3.162960052490234375e+01
3.199240303039550781e+01
3.202460098266601562e+01
3.202460098266601562e+01
3.202460098266601562e+01
3.202460098266601562e+01
3.241960144042968750e+01
3.238898086547851562e+01
3.241960144042968750e+01
3.278441619873046875e+01
3.284432601928710938e+01
3.357493591308593750e+01
3.397019958496093750e+01
3.515536880493164062e+01
3.670685195922851562e+01
3.792078781127929688e+01
3.989596176147460938e+01
4.263314056396484375e+01
4.505899810791015625e+01
4.816398620605468750e+01
5.095660781860351562e+01
5.408974456787109375e+01
5.725016784667968750e+01
5.927840042114257812e+01
6.122716140747070312e+01
6.283319854736328125e+01
6.441320037841796875e+01
6.441320037841796875e+01
6.404328918457031250e+01
6.441320037841796875e+01
6.325275802612304688e+01
6.206759643554687500e+01
6.125329971313476562e+01
6.009216308593750000e+01
5.851190567016601562e+01
5.730350112915039062e+01
5.614147949218750000e+01
5.495631790161132812e+01
5.416605377197265625e+01
5.337588500976562500e+01
5.256370162963867188e+01
5.140036392211914062e+01
5.098379898071289062e+01
4.979880142211914062e+01
4.863476562500000000e+01
4.782389831542968750e+01
4.626433944702148438e+01
4.545399856567382812e+01
4.389391326904296875e+01
4.270865631103515625e+01
4.152349090576171875e+01
4.033823013305664062e+01
3.954806137084960938e+01
3.873929977416992188e+01
3.757254028320312500e+01
3.676440048217773438e+01
3.597439956665039062e+01
3.557939910888671875e+01
3.480668258666992188e+01
3.478950119018554688e+01
3.439450073242187500e+01
3.401589584350585938e+01
3.399950027465820312e+01
3.360449981689453125e+01
3.360449981689453125e+01
3.322484207153320312e+01
3.320949935913085938e+01
3.320949935913085938e+01
3.281449890136718750e+01
3.243388366699218750e+01
3.241960144042968750e+01
3.241960144042968750e+01
3.202460098266601562e+01
3.203783416748046875e+01
3.202460098266601562e+01
3.164230728149414062e+01
3.162960052490234375e+01
3.162960052490234375e+01
3.162960052490234375e+01
3.161794471740722656e+01
3.123460006713867188e+01
3.124572753906250000e+01
3.123460006713867188e+01
3.124520111083984375e+01
3.123460006713867188e+01
3.124467468261718750e+01
3.124441146850585938e+01
3.162960052490234375e+01
3.124388313293457031e+01
3.162960052490234375e+01
3.124335670471191406e+01
3.162960052490234375e+01
3.124283027648925781e+01
3.162960052490234375e+01
3.123460006713867188e+01
3.162215995788574219e+01
3.123460006713867188e+01
3.123460006713867188e+01
3.163624954223632812e+01
3.162960052490234375e+01
3.202460098266601562e+01
3.202460098266601562e+01
3.241400146484375000e+01
3.241960144042968750e+01
3.202460098266601562e+01
3.202940750122070312e+01
3.241960144042968750e+01
3.241960144042968750e+01
3.281449890136718750e+01
3.360074615478515625e+01
3.399950027465820312e+01
3.557617187500000000e+01
3.636643600463867188e+01
3.833890151977539062e+01
4.031676483154296875e+01
4.268692779541015625e+01
4.545018005371093750e+01
4.861060714721679688e+01
5.137870025634765625e+01
5.493136215209960938e+01
5.690850067138671875e+01
5.967221450805664062e+01
6.164764022827148438e+01
6.283319854736328125e+01
6.362319946289062500e+01
6.362366104125976562e+01
6.441247558593750000e+01
6.362221145629882812e+01
6.243704986572265625e+01
6.164678573608398438e+01
6.006840133666992188e+01
5.888339996337890625e+01
5.809109497070312500e+01
5.690850067138671875e+01
5.611849975585937500e+01
5.493360137939453125e+01
5.414360046386718750e+01
5.335369873046875000e+01
5.216870117187500000e+01
5.137455368041992188e+01
5.058438873291015625e+01
4.940380096435546875e+01
4.861389923095703125e+01
4.742890167236328125e+01
4.624399948120117188e+01
4.505899810791015625e+01
4.387409973144531250e+01
4.268909835815429688e+01
4.149768066406250000e+01
3.991741943359375000e+01
3.912725448608398438e+01
3.794198989868164062e+01
3.715182876586914062e+01
3.597439956665039062e+01
3.557130050659179688e+01
3.439450073242187500e+01
3.399950027465820312e+01
3.399061203002929688e+01
3.360449981689453125e+01
3.359508514404296875e+01
3.320949935913085938e+01
3.319955825805664062e+01
3.319929504394531250e+01
3.281449890136718750e+01
3.243032836914062500e+01
3.243059158325195312e+01
3.241960144042968750e+01
3.240807723999023438e+01
3.240781402587890625e+01
3.202460098266601562e+01
3.202460098266601562e+01
3.164217567443847656e+01
3.162960052490234375e+01
3.123460006713867188e+01
3.122123336791992188e+01
3.123460006713867188e+01
3.123460006713867188e+01
3.085375595092773438e+01
3.083959960937500000e+01
3.085428237915039062e+01
3.123460006713867188e+01
3.123460006713867188e+01
3.123460006713867188e+01
3.083959960937500000e+01
3.083959960937500000e+01
3.046086311340332031e+01
3.082307243347167969e+01
3.044459915161132812e+01
3.083959960937500000e+01
3.085691642761230469e+01
3.123460006713867188e+01
3.123460006713867188e+01
3.123460006713867188e+01
3.085797119140625000e+01
3.083959960937500000e+01
3.123460006713867188e+01
3.123460006713867188e+01
3.121517562866210938e+01
3.083959960937500000e+01
3.123460006713867188e+01
3.121438598632812500e+01
3.123460006713867188e+01
3.123460006713867188e+01
3.160859489440917969e+01
3.162960052490234375e+01
3.162960052490234375e+01
3.200280380249023438e+01
3.202460098266601562e+01
3.202460098266601562e+01
3.239701461791992188e+01
3.239675140380859375e+01
3.204771041870117188e+01
3.241960144042968750e+01
3.241960144042968750e+01
3.281449890136718750e+01
3.360449981689453125e+01
3.402392959594726562e+01
3.560409164428710938e+01
3.678935623168945312e+01
3.836951828002929688e+01
4.076516342163085938e+01
4.313558959960937500e+01
4.587500762939453125e+01
4.866643524169921875e+01
5.219523620605468750e+01
5.498719024658203125e+01
5.812046051025390625e+01
6.009571838378906250e+01
6.246588134765625000e+01
6.441320037841796875e+01
6.480819702148437500e+01
6.520310211181640625e+01
6.520310211181640625e+01
6.477929687500000000e+01
6.362319946289062500e+01
6.243830108642578125e+01
6.125329971313476562e+01
6.040338897705078125e+01
5.885317611694335938e+01
5.766801452636718750e+01
5.648274993896484375e+01
5.532860183715820312e+01
5.453860092163085938e+01
5.371706771850585938e+01
5.216870117187500000e+01
5.174163436889648438e+01
5.058879852294921875e+01
4.937120819091796875e+01
4.821889877319335938e+01
4.703390121459960938e+01
4.581561660766601562e+01
4.426900100708007812e+01
4.308409881591796875e+01
4.189920043945312500e+01
4.107476425170898438e+01
3.992419815063476562e+01
3.913430023193359375e+01
3.794929885864257812e+01
3.712390899658203125e+01
3.633364486694335938e+01
3.557939910888671875e+01
3.518439865112304688e+01
3.475295639038085938e+01
3.439450073242187500e+01
3.439450073242187500e+01
3.399950027465820312e+01
3.360449981689453125e+01
3.356663894653320312e+01
3.320949935913085938e+01
3.281449890136718750e+01
3.281449890136718750e+01
3.281449890136718750e+01
3.277533340454101562e+01
3.241960144042968750e+01
3.241960144042968750e+01
3.241960144042968750e+01
3.202460098266601562e+01
3.198410606384277344e+01
3.167035675048828125e+01
3.202460098266601562e+01
3.162960052490234375e+01
3.162960052490234375e+01
3.162960052490234375e+01
3.162960052490234375e+01
3.123460006713867188e+01
3.162960052490234375e+01
3.123460006713867188e+01
3.123460006713867188e+01
3.083959960937500000e+01
3.083959960937500000e+01
3.083959960937500000e+01
3.123460006713867188e+01
3.088404464721679688e+01
3.123460006713867188e+01
3.083959960937500000e+01
3.083959960937500000e+01
3.118910217285156250e+01
3.123460006713867188e+01
3.123460006713867188e+01
3.123460006713867188e+01
3.158304786682128906e+01
3.162960052490234375e+01
3.158252143859863281e+01
3.123460006713867188e+01
3.158199501037597656e+01
3.162960052490234375e+01
3.162960052490234375e+01
3.167799568176269531e+01
3.202460098266601562e+01
3.207352066040039062e+01
3.202460098266601562e+01
3.237015151977539062e+01
3.236988830566406250e+01
3.241960144042968750e+01
3.281449890136718750e+01
3.360449981689453125e+01
3.365526580810546875e+01
3.484051513671875000e+01
3.642069244384765625e+01
3.760585784912109375e+01
4.037102127075195312e+01
4.268909835815429688e+01
4.511134719848632812e+01
4.792911911010742188e+01
5.103665924072265625e+01
5.424987411499023438e+01
5.735689926147460938e+01
5.893706130981445312e+01
6.091222763061523438e+01
6.322819900512695312e+01
6.362319946289062500e+01
6.401820373535156250e+01
6.441320037841796875e+01
6.396295547485351562e+01
6.283319854736328125e+01
6.164830017089843750e+01
6.080226516723632812e+01
5.961710357666015625e+01
5.843183898925781250e+01
5.690850067138671875e+01
5.606141281127929688e+01
5.527124786376953125e+01
5.408598709106445312e+01
5.329582214355468750e+01
5.211056137084960938e+01
5.132031250000000000e+01
5.013513183593750000e+01
4.934486770629882812e+01
4.782389831542968750e+01
4.703390121459960938e+01
4.578927993774414062e+01
4.460401535034179688e+01
4.341885375976562500e+01
4.189920043945312500e+01
4.071419906616210938e+01
3.986317825317382812e+01
3.867799758911132812e+01
3.788773727416992188e+01
3.670257186889648438e+01
3.557939910888671875e+01
3.518439865112304688e+01
3.478950119018554688e+01
3.439450073242187500e+01
3.399950027465820312e+01
3.360449981689453125e+01
3.360449981689453125e+01
3.327343368530273438e+01
3.314530181884765625e+01
3.320949935913085938e+01
3.287922668457031250e+01
3.314451217651367188e+01
3.281449890136718750e+01
3.281449890136718750e+01
3.241960144042968750e+01
3.235355758666992188e+01
3.202460098266601562e+01
3.162960052490234375e+01
3.156276893615722656e+01
3.130169486999511719e+01
3.156224060058593750e+01
3.156197738647460938e+01
3.162960052490234375e+01
3.162960052490234375e+01
3.123460006713867188e+01
3.123460006713867188e+01
3.083959960937500000e+01
3.116539764404296875e+01
3.116513442993164062e+01
3.090932846069335938e+01
3.116460800170898438e+01
3.116434478759765625e+01
3.123460006713867188e+01
3.123460006713867188e+01
3.116355323791503906e+01
3.083959960937500000e+01
3.091117286682128906e+01
3.083959960937500000e+01
3.091169929504394531e+01
3.123460006713867188e+01
3.162960052490234375e+01
3.130748939514160156e+01
3.202460098266601562e+01
3.162960052490234375e+01
3.202460098266601562e+01
3.202460098266601562e+01
3.162960052490234375e+01
3.202460098266601562e+01
3.202460098266601562e+01
3.202460098266601562e+01
3.202460098266601562e+01
3.241960144042968750e+01
3.281449890136718750e+01
3.281449890136718750e+01
3.360449981689453125e+01
3.407607650756835938e+01
3.486632156372070312e+01
3.605150222778320312e+01
3.802666854858398438e+01
4.039683151245117188e+01
4.276699447631835938e+01
4.553215789794921875e+01
4.869229888916015625e+01
5.145738220214843750e+01
5.430149459838867188e+01
5.698770904541015625e+01
5.943734741210937500e+01
6.164830017089843750e+01
6.251828002929687500e+01
6.362319946289062500e+01
6.441320037841796875e+01
6.401820373535156250e+01
6.362319946289062500e+01
6.283319854736328125e+01
6.196171951293945312e+01
6.046329879760742188e+01
5.919629287719726562e+01
5.801105117797851562e+01
5.682586669921875000e+01
5.564062118530273438e+01
5.445544052124023438e+01
5.366519546508789062e+01
5.287501144409179688e+01
5.177370071411132812e+01
5.089958572387695312e+01
4.988327789306640625e+01
4.892407989501953125e+01
4.782389831542968750e+01
4.663890075683593750e+01
4.536846923828125000e+01
4.426900100708007812e+01
4.299804306030273438e+01
4.150419998168945312e+01
4.062761306762695312e+01
3.952930068969726562e+01
3.834429931640625000e+01
3.755429840087890625e+01
3.676440048217773438e+01
3.588649749755859375e+01
3.549123382568359375e+01
3.439450073242187500e+01
3.439450073242187500e+01
3.399950027465820312e+01
3.399950027465820312e+01
3.360449981689453125e+01
3.320949935913085938e+01
3.320949935913085938e+01
3.281449890136718750e+01
3.281449890136718750e+01
3.272372436523437500e+01
3.241960144042968750e+01
3.241960144042968750e+01
3.202460098266601562e+01
3.193274688720703125e+01
3.132671546936035156e+01
3.162960052490234375e+01
3.162960052490234375e+01
3.123460006713867188e+01
3.123460006713867188e+01
3.093303298950195312e+01
3.083959960937500000e+01
3.093355941772460938e+01
3.123460006713867188e+01
3.123460006713867188e+01
3.123460006713867188e+01
3.083959960937500000e+01
3.123460006713867188e+01
3.123460006713867188e+01
3.113879585266113281e+01
3.123460006713867188e+01
3.123460006713867188e+01
3.083959960937500000e+01
3.123460006713867188e+01
3.123460006713867188e+01
3.123460006713867188e+01
3.123460006713867188e+01
3.113669013977050781e+01
3.123460006713867188e+01
3.123460006713867188e+01
3.123460006713867188e+01
3.153063583374023438e+01
3.162960052490234375e+01
3.162960052490234375e+01
3.162960052490234375e+01
3.202460098266601562e+01
3.162960052490234375e+01
3.202460098266601562e+01
3.202460098266601562e+01
3.212567138671875000e+01
3.212593460083007812e+01
3.241960144042968750e+01
3.281449890136718750e+01
3.331162261962890625e+01
3.399950027465820312e+01
3.489212417602539062e+01
3.647231292724609375e+01
3.805247879028320312e+01
4.042264175415039062e+01
4.358280563354492188e+01
4.595296859741210938e+01
4.871810531616210938e+01
5.158768844604492188e+01
5.464336013793945312e+01
5.780349349975585938e+01
5.977868652343750000e+01
6.135884857177734375e+01
6.333401107788085938e+01
6.441320037841796875e+01
6.441320037841796875e+01
6.401820373535156250e+01
6.401820373535156250e+01
6.283319854736328125e+01
6.164830017089843750e+01
6.075064468383789062e+01
5.917048263549804688e+01
5.809339904785156250e+01
5.719505310058593750e+01
5.611849975585937500e+01
5.521962738037109375e+01
5.414360046386718750e+01
5.335369873046875000e+01
5.245393753051757812e+01
5.137870025634765625e+01
5.047851181030273438e+01
4.929324722290039062e+01
4.782389831542968750e+01
4.692282104492187500e+01
4.545399856567382812e+01
4.455239486694335938e+01
4.325535964965820312e+01
4.178706741333007812e+01
4.060180282592773438e+01
3.952930068969726562e+01
3.862637710571289062e+01
3.744114303588867188e+01
3.648284912109375000e+01
3.586068725585937500e+01
3.507045364379882812e+01
3.467525863647460938e+01
3.399950027465820312e+01
3.360449981689453125e+01
3.360449981689453125e+01
3.360449981689453125e+01
3.348894500732421875e+01
3.320949935913085938e+01
3.320949935913085938e+01
3.293084716796875000e+01
3.281449890136718750e+01
3.281449890136718750e+01
3.269739151000976562e+01
3.241960144042968750e+01
3.241960144042968750e+01
3.202460098266601562e+01
3.202460098266601562e+01
3.162960052490234375e+01
3.162960052490234375e+01
3.162960052490234375e+01
3.162960052490234375e+01
3.162960052490234375e+01
3.162960052490234375e+01
3.150956535339355469e+01
3.123460006713867188e+01
3.123460006713867188e+01
3.123460006713867188e+01
3.096068763732910156e+01
3.083959960937500000e+01
3.123460006713867188e+01
3.111272239685058594e+01
3.123460006713867188e+01
3.123460006713867188e+01
3.123460006713867188e+01
3.111166954040527344e+01
3.111140441894531250e+01
3.111114120483398438e+01
3.111087799072265625e+01
3.083959960937500000e+01
3.123460006713867188e+01
3.162960052490234375e+01
3.123460006713867188e+01
3.162960052490234375e+01
3.162960052490234375e+01
3.202460098266601562e+01
3.202460098266601562e+01
3.202460098266601562e+01
3.215095520019531250e+01
3.241960144042968750e+01
3.241960144042968750e+01
3.254671478271484375e+01
3.281449890136718750e+01
3.320949935913085938e+01
3.360449981689453125e+01
3.491766738891601562e+01
3.662632369995117188e+01
3.794929885864257812e+01
4.018217849731445312e+01
4.281835174560546875e+01
4.518851470947265625e+01
4.795367813110351562e+01
5.111380767822265625e+01
5.400921249389648438e+01
5.703907012939453125e+01
5.927840042114257812e+01
6.138439559936523438e+01
6.296455764770507812e+01
6.414982604980468750e+01
6.441320037841796875e+01
6.441320037841796875e+01
6.441320037841796875e+01
6.349052429199218750e+01
6.204330062866210938e+01
6.125329971313476562e+01
6.006840133666992188e+01
5.914466857910156250e+01
5.795944213867187500e+01
5.677424240112304688e+01
5.598397827148437500e+01
5.479881668090820312e+01
5.374860000610351562e+01
5.282339096069335938e+01
5.203312683105468750e+01
5.124289703369140625e+01
5.005770111083984375e+01
4.926743698120117188e+01
4.821889877319335938e+01
4.689701080322265625e+01
4.584899902343750000e+01
4.426900100708007812e+01
4.294641876220703125e+01
4.176125717163085938e+01
4.031919860839843750e+01
3.913430023193359375e+01
3.820556640625000000e+01
3.755429840087890625e+01
3.636940002441406250e+01
3.557939910888671875e+01
3.518439865112304688e+01
3.439450073242187500e+01
3.425418472290039062e+01
3.385892105102539062e+01
3.360449981689453125e+01
3.346339416503906250e+01
3.320949935913085938e+01
3.320949935913085938e+01
3.320949935913085938e+01
3.295665740966796875e+01
3.241960144042968750e+01
3.241960144042968750e+01
3.202460098266601562e+01
3.202460098266601562e+01
3.202460098266601562e+01
3.162960052490234375e+01
3.162960052490234375e+01
3.162960052490234375e+01
3.148507118225097656e+01
3.123460006713867188e+01
3.123460006713867188e+01
3.123460006713867188e+01
3.083959960937500000e+01
3.108875465393066406e+01
3.059070777893066406e+01
3.069322776794433594e+01
3.083959960937500000e+01
3.059149932861328125e+01
3.083959960937500000e+01
3.083959960937500000e+01
3.059228897094726562e+01
3.059255218505859375e+01
3.044459915161132812e+01
3.083959960937500000e+01
3.059334182739257812e+01
3.069059371948242188e+01
3.069033050537109375e+01
3.098913192749023438e+01
3.123460006713867188e+01
3.098965835571289062e+01
3.083959960937500000e+01
3.099018669128417969e+01
3.123460006713867188e+01
3.123460006713867188e+01
3.123460006713867188e+01
3.123460006713867188e+01
3.162960052490234375e+01
3.162960052490234375e+01
3.162960052490234375e+01
3.178229331970214844e+01
3.178255653381347656e+01
3.202460098266601562e+01
3.226611709594726562e+01
3.241960144042968750e+01
3.241960144042968750e+01
3.266026687622070312e+01
3.296903610229492188e+01
3.360449981689453125e+01
3.399950027465820312e+01
3.494478607177734375e+01
3.652499008178710938e+01
3.771015167236328125e+01
3.984149551391601562e+01
4.260686111450195312e+01
4.537228775024414062e+01
4.798080825805664062e+01
5.090309906005859375e+01
5.445846557617187500e+01
5.746119689941406250e+01
5.983135986328125000e+01
6.180652236938476562e+01
6.338668823242187500e+01
6.480819702148437500e+01
6.504412841796875000e+01
6.520310211181640625e+01
6.480819702148437500e+01
6.385839462280273438e+01
6.267317199707031250e+01
6.188296890258789062e+01
6.030274581909179688e+01
5.911754226684570312e+01
5.793231964111328125e+01
5.651350021362304688e+01
5.556189346313476562e+01
5.453860092163085938e+01
5.358646774291992188e+01
5.279626083374023438e+01
5.177370071411132812e+01
5.098379898071289062e+01
4.979880142211914062e+01
4.861389923095703125e+01
4.782389831542968750e+01
4.663890075683593750e+01
4.528971862792968750e+01
4.410449600219726562e+01
4.268909835815429688e+01
4.150419998168945312e+01
4.071419906616210938e+01
3.936370086669921875e+01
3.834429931640625000e+01
3.715940093994140625e+01
3.636940002441406250e+01
3.557939910888671875e+01
3.501752853393554688e+01
3.462232208251953125e+01
3.439450073242187500e+01
3.399950027465820312e+01
3.360449981689453125e+01
3.360449981689453125e+01
3.320949935913085938e+01
3.320949935913085938e+01
3.281449890136718750e+01
3.281449890136718750e+01
3.241960144042968750e+01
3.241960144042968750e+01
3.224952316284179688e+01
3.202460098266601562e+01
3.202460098266601562e+01
3.202460098266601562e+01
3.162960052490234375e+01
3.162960052490234375e+01
3.162960052490234375e+01
3.145767974853515625e+01
3.123460006713867188e+01
3.101204681396484375e+01
3.083959960937500000e+01
3.123460006713867188e+01
3.101283645629882812e+01
3.101309967041015625e+01
3.083959960937500000e+01
3.083959960937500000e+01
3.044459915161132812e+01
3.044459915161132812e+01
3.083959960937500000e+01
3.083959960937500000e+01
3.083959960937500000e+01
3.123460006713867188e+01
3.123460006713867188e+01
3.123460006713867188e+01
3.105820274353027344e+01
3.101626014709472656e+01
3.101652336120605469e+01
3.105741310119628906e+01
3.105714988708496094e+01
3.105688667297363281e+01
3.105662345886230469e+01
3.123460006713867188e+01
3.123460006713867188e+01
3.123460006713867188e+01
3.123460006713867188e+01
3.162960052490234375e+01
3.162960052490234375e+01
3.202460098266601562e+01
3.202460098266601562e+01
3.202460098266601562e+01
3.202460098266601562e+01
3.241960144042968750e+01
3.220573806762695312e+01
3.241960144042968750e+01
3.260121917724609375e+01
3.281449890136718750e+01
3.320949935913085938e+01
3.399950027465820312e+01
3.518439865112304688e+01
3.634036254882812500e+01
3.834429931640625000e+01
4.068621444702148438e+01
4.326787185668945312e+01
4.603303527832031250e+01
4.858744812011718750e+01
5.195826339721679688e+01
5.490824890136718750e+01
5.788354110717773438e+01
5.985875320434570312e+01
6.201953125000000000e+01
6.380907821655273438e+01
6.441320037841796875e+01
6.480819702148437500e+01
6.520310211181640625e+01
6.462126922607421875e+01
6.362319946289062500e+01
6.243830108642578125e+01
6.125329971313476562e+01
6.027536392211914062e+01
5.869515228271484375e+01
5.750998687744140625e+01
5.651350021362304688e+01
5.553450775146484375e+01
5.434929656982421875e+01
5.355908203125000000e+01
5.256370162963867188e+01
5.158360671997070312e+01
5.039844512939453125e+01
4.921318054199218750e+01
4.802801895141601562e+01
4.684275436401367188e+01
4.565758895874023438e+01
4.447232818603515625e+01
4.328716278076171875e+01
4.189920043945312500e+01
4.071419906616210938e+01
3.973152160644531250e+01
3.834429931640625000e+01
3.736109542846679688e+01
3.636940002441406250e+01
3.538562011718750000e+01
3.518439865112304688e+01
3.459519195556640625e+01
3.399950027465820312e+01
3.360449981689453125e+01
3.340459823608398438e+01
3.360449981689453125e+01
3.320949935913085938e+01
3.320949935913085938e+01
3.301065063476562500e+01
3.320949935913085938e+01
3.261622619628906250e+01
3.281449890136718750e+01
3.281449890136718750e+01
3.241960144042968750e+01
3.222233200073242188e+01
3.202460098266601562e+01
3.182634353637695312e+01
3.182608032226562500e+01
3.162960052490234375e+01
3.123460006713867188e+01
3.123460006713867188e+01
3.123460006713867188e+01
3.123460006713867188e+01
3.103970146179199219e+01
3.103996467590332031e+01
3.083959960937500000e+01
3.123460006713867188e+01
3.123460006713867188e+01
3.123460006713867188e+01
3.103291893005371094e+01
3.123460006713867188e+01
3.123460006713867188e+01
3.104207038879394531e+01
3.104233551025390625e+01
3.104259872436523438e+01
3.123460006713867188e+01
3.103107452392578125e+01
3.103081130981445312e+01
3.103054809570312500e+01
3.083959960937500000e+01
3.123460006713867188e+01
3.123460006713867188e+01
3.142449569702148438e+01
3.162960052490234375e+01
3.162960052490234375e+01
3.162960052490234375e+01
3.162960052490234375e+01
3.162960052490234375e+01
3.162960052490234375e+01
3.162960052490234375e+01
3.202460098266601562e+01
3.223207473754882812e+01
3.221186065673828125e+01
3.262754821777343750e+01
3.281449890136718750e+01
3.320949935913085938e+01
3.420829391479492188e+01
3.557939910888671875e+01
3.697372055053710938e+01
3.855388259887695312e+01
4.092404556274414062e+01
4.368920898437500000e+01
4.626969146728515625e+01
4.924575424194335938e+01
5.237960052490234375e+01
5.535587310791015625e+01
5.830482482910156250e+01
6.028003692626953125e+01
6.225525283813476562e+01
6.401820373535156250e+01
6.423068237304687500e+01
6.441320037841796875e+01
6.459519195556640625e+01
6.380493164062500000e+01
6.283319854736328125e+01
6.182950210571289062e+01
6.064424133300781250e+01
5.945907592773437500e+01
5.809339904785156250e+01
